Time,EcgWaveform
24/06/2015 23:05:14.426,3798
24/06/2015 23:05:14.430,3798
24/06/2015 23:05:14.434,3798
24/06/2015 23:05:14.438,3798
24/06/2015 23:05:14.442,3798
24/06/2015 23:05:14.446,3798
24/06/2015 23:05:14.450,3798
24/06/2015 23:05:14.454,3798
24/06/2015 23:05:14.458,3798
24/06/2015 23:05:14.462,3798
24/06/2015 23:05:14.466,3798
24/06/2015 23:05:14.470,3798
24/06/2015 23:05:14.474,3798
24/06/2015 23:05:14.478,3798
24/06/2015 23:05:14.482,3798
24/06/2015 23:05:14.486,3798
24/06/2015 23:05:14.490,3798
24/06/2015 23:05:14.494,3798
24/06/2015 23:05:14.498,3798
24/06/2015 23:05:14.502,3798
24/06/2015 23:05:14.506,3798
24/06/2015 23:05:14.510,3798
24/06/2015 23:05:14.514,3798
24/06/2015 23:05:14.518,3798
24/06/2015 23:05:14.522,3798
24/06/2015 23:05:14.526,3798
24/06/2015 23:05:14.530,3798
24/06/2015 23:05:14.534,3798
24/06/2015 23:05:14.538,3798
24/06/2015 23:05:14.542,3798
24/06/2015 23:05:14.546,3798
24/06/2015 23:05:14.550,3798
24/06/2015 23:05:14.554,3798
24/06/2015 23:05:14.558,3798
24/06/2015 23:05:14.562,3798
24/06/2015 23:05:14.566,3797
24/06/2015 23:05:14.570,3798
24/06/2015 23:05:14.574,3799
24/06/2015 23:05:14.578,3800
24/06/2015 23:05:14.582,3800
24/06/2015 23:05:14.586,3799
24/06/2015 23:05:14.590,3794
24/06/2015 23:05:14.594,3786
24/06/2015 23:05:14.598,3775
24/06/2015 23:05:14.602,3763
24/06/2015 23:05:14.606,3750
24/06/2015 23:05:14.610,3738
24/06/2015 23:05:14.614,3726
24/06/2015 23:05:14.618,3715
24/06/2015 23:05:14.622,3703
24/06/2015 23:05:14.626,3693
24/06/2015 23:05:14.630,3682
24/06/2015 23:05:14.634,3671
24/06/2015 23:05:14.638,3661
24/06/2015 23:05:14.642,3651
24/06/2015 23:05:14.646,3641
24/06/2015 23:05:14.650,3630
24/06/2015 23:05:14.654,3618
24/06/2015 23:05:14.658,3607
24/06/2015 23:05:14.662,3596
24/06/2015 23:05:14.666,3586
24/06/2015 23:05:14.670,3577
24/06/2015 23:05:14.674,3568
24/06/2015 23:05:14.678,3559
24/06/2015 23:05:14.682,3550
24/06/2015 23:05:14.686,3540
24/06/2015 23:05:14.690,3530
24/06/2015 23:05:14.694,3519
24/06/2015 23:05:14.698,3508
24/06/2015 23:05:14.702,3498
24/06/2015 23:05:14.706,3488
24/06/2015 23:05:14.710,3479
24/06/2015 23:05:14.714,3470
24/06/2015 23:05:14.718,3461
24/06/2015 23:05:14.722,3452
24/06/2015 23:05:14.726,3443
24/06/2015 23:05:14.730,3434
24/06/2015 23:05:14.734,3425
24/06/2015 23:05:14.738,3417
24/06/2015 23:05:14.742,3408
24/06/2015 23:05:14.746,3399
24/06/2015 23:05:14.750,3392
24/06/2015 23:05:14.754,3384
24/06/2015 23:05:14.758,3377
24/06/2015 23:05:14.762,3369
24/06/2015 23:05:14.766,3360
24/06/2015 23:05:14.770,3351
24/06/2015 23:05:14.774,3342
24/06/2015 23:05:14.778,3333
24/06/2015 23:05:14.782,3325
24/06/2015 23:05:14.786,3316
24/06/2015 23:05:14.790,3308
24/06/2015 23:05:14.794,3300
24/06/2015 23:05:14.798,3293
24/06/2015 23:05:14.802,3284
24/06/2015 23:05:14.806,3276
24/06/2015 23:05:14.810,3267
24/06/2015 23:05:14.814,3259
24/06/2015 23:05:14.818,3251
24/06/2015 23:05:14.822,3244
24/06/2015 23:05:14.826,3237
24/06/2015 23:05:14.830,3231
24/06/2015 23:05:14.834,3225
24/06/2015 23:05:14.838,3218
24/06/2015 23:05:14.842,3211
24/06/2015 23:05:14.846,3205
24/06/2015 23:05:14.850,3199
24/06/2015 23:05:14.854,3194
24/06/2015 23:05:14.858,3190
24/06/2015 23:05:14.862,3184
24/06/2015 23:05:14.866,3178
24/06/2015 23:05:14.870,3171
24/06/2015 23:05:14.874,3163
24/06/2015 23:05:14.878,3156
24/06/2015 23:05:14.882,3150
24/06/2015 23:05:14.886,3142
24/06/2015 23:05:14.890,3134
24/06/2015 23:05:14.894,3126
24/06/2015 23:05:14.898,3118
24/06/2015 23:05:14.902,3112
24/06/2015 23:05:14.906,3107
24/06/2015 23:05:14.910,3103
24/06/2015 23:05:14.914,3098
24/06/2015 23:05:14.918,3091
24/06/2015 23:05:14.922,3084
24/06/2015 23:05:14.926,3076
24/06/2015 23:05:14.930,3068
24/06/2015 23:05:14.934,3059
24/06/2015 23:05:14.938,3049
24/06/2015 23:05:14.942,3040
24/06/2015 23:05:14.946,3032
24/06/2015 23:05:14.950,3025
24/06/2015 23:05:14.954,3015
24/06/2015 23:05:14.958,3001
24/06/2015 23:05:14.962,2986
24/06/2015 23:05:14.966,2979
24/06/2015 23:05:14.970,2992
24/06/2015 23:05:14.974,3039
24/06/2015 23:05:14.978,3125
24/06/2015 23:05:14.982,3235
24/06/2015 23:05:14.986,3334
24/06/2015 23:05:14.990,3381
24/06/2015 23:05:14.994,3346
24/06/2015 23:05:14.998,3234
24/06/2015 23:05:15.002,3081
24/06/2015 23:05:15.006,2941
24/06/2015 23:05:15.010,2853
24/06/2015 23:05:15.014,2829
24/06/2015 23:05:15.018,2849
24/06/2015 23:05:15.022,2885
24/06/2015 23:05:15.026,2912
24/06/2015 23:05:15.030,2924
24/06/2015 23:05:15.034,2924
24/06/2015 23:05:15.038,2914
24/06/2015 23:05:15.042,2898
24/06/2015 23:05:15.046,2880
24/06/2015 23:05:15.050,2864
24/06/2015 23:05:15.054,2853
24/06/2015 23:05:15.058,2850
24/06/2015 23:05:15.062,2850
24/06/2015 23:05:15.066,2850
24/06/2015 23:05:15.070,2848
24/06/2015 23:05:15.074,2843
24/06/2015 23:05:15.078,2839
24/06/2015 23:05:15.082,2835
24/06/2015 23:05:15.086,2833
24/06/2015 23:05:15.090,2829
24/06/2015 23:05:15.094,2824
24/06/2015 23:05:15.098,2816
24/06/2015 23:05:15.102,2809
24/06/2015 23:05:15.106,2804
24/06/2015 23:05:15.110,2800
24/06/2015 23:05:15.114,2798
24/06/2015 23:05:15.118,2795
24/06/2015 23:05:15.122,2792
24/06/2015 23:05:15.126,2787
24/06/2015 23:05:15.130,2784
24/06/2015 23:05:15.134,2782
24/06/2015 23:05:15.138,2781
24/06/2015 23:05:15.142,2779
24/06/2015 23:05:15.146,2776
24/06/2015 23:05:15.150,2772
24/06/2015 23:05:15.154,2767
24/06/2015 23:05:15.158,2763
24/06/2015 23:05:15.162,2760
24/06/2015 23:05:15.166,2757
24/06/2015 23:05:15.170,2755
24/06/2015 23:05:15.174,2753
24/06/2015 23:05:15.178,2750
24/06/2015 23:05:15.182,2747
24/06/2015 23:05:15.186,2744
24/06/2015 23:05:15.190,2742
24/06/2015 23:05:15.194,2741
24/06/2015 23:05:15.198,2740
24/06/2015 23:05:15.202,2741
24/06/2015 23:05:15.206,2741
24/06/2015 23:05:15.210,2741
24/06/2015 23:05:15.214,2739
24/06/2015 23:05:15.218,2734
24/06/2015 23:05:15.222,2728
24/06/2015 23:05:15.226,2723
24/06/2015 23:05:15.230,2720
24/06/2015 23:05:15.234,2719
24/06/2015 23:05:15.238,2719
24/06/2015 23:05:15.242,2718
24/06/2015 23:05:15.246,2716
24/06/2015 23:05:15.250,2712
24/06/2015 23:05:15.254,2708
24/06/2015 23:05:15.258,2701
24/06/2015 23:05:15.262,2694
24/06/2015 23:05:15.266,2688
24/06/2015 23:05:15.270,2683
24/06/2015 23:05:15.274,2681
24/06/2015 23:05:15.278,2680
24/06/2015 23:05:15.282,2676
24/06/2015 23:05:15.286,2669
24/06/2015 23:05:15.290,2658
24/06/2015 23:05:15.294,2646
24/06/2015 23:05:15.298,2635
24/06/2015 23:05:15.302,2629
24/06/2015 23:05:15.306,2626
24/06/2015 23:05:15.310,2623
24/06/2015 23:05:15.314,2620
24/06/2015 23:05:15.318,2614
24/06/2015 23:05:15.322,2607
24/06/2015 23:05:15.326,2600
24/06/2015 23:05:15.330,2594
24/06/2015 23:05:15.334,2591
24/06/2015 23:05:15.338,2590
24/06/2015 23:05:15.342,2589
24/06/2015 23:05:15.346,2585
24/06/2015 23:05:15.350,2578
24/06/2015 23:05:15.354,2569
24/06/2015 23:05:15.358,2560
24/06/2015 23:05:15.362,2553
24/06/2015 23:05:15.366,2549
24/06/2015 23:05:15.370,2548
24/06/2015 23:05:15.374,2548
24/06/2015 23:05:15.378,2547
24/06/2015 23:05:15.382,2545
24/06/2015 23:05:15.386,2542
24/06/2015 23:05:15.390,2539
24/06/2015 23:05:15.394,2536
24/06/2015 23:05:15.398,2534
24/06/2015 23:05:15.402,2533
24/06/2015 23:05:15.406,2533
24/06/2015 23:05:15.410,2531
24/06/2015 23:05:15.414,2529
24/06/2015 23:05:15.418,2526
24/06/2015 23:05:15.422,2522
24/06/2015 23:05:15.426,2518
24/06/2015 23:05:15.430,2516
24/06/2015 23:05:15.434,2514
24/06/2015 23:05:15.438,2513
24/06/2015 23:05:15.442,2511
24/06/2015 23:05:15.446,2509
24/06/2015 23:05:15.450,2506
24/06/2015 23:05:15.454,2502
24/06/2015 23:05:15.458,2498
24/06/2015 23:05:15.462,2493
24/06/2015 23:05:15.466,2488
24/06/2015 23:05:15.470,2483
24/06/2015 23:05:15.474,2479
24/06/2015 23:05:15.478,2476
24/06/2015 23:05:15.482,2475
24/06/2015 23:05:15.486,2476
24/06/2015 23:05:15.490,2476
24/06/2015 23:05:15.494,2477
24/06/2015 23:05:15.498,2477
24/06/2015 23:05:15.502,2477
24/06/2015 23:05:15.506,2476
24/06/2015 23:05:15.510,2474
24/06/2015 23:05:15.514,2471
24/06/2015 23:05:15.518,2468
24/06/2015 23:05:15.522,2465
24/06/2015 23:05:15.526,2462
24/06/2015 23:05:15.530,2458
24/06/2015 23:05:15.534,2455
24/06/2015 23:05:15.538,2452
24/06/2015 23:05:15.542,2448
24/06/2015 23:05:15.546,2446
24/06/2015 23:05:15.550,2446
24/06/2015 23:05:15.554,2446
24/06/2015 23:05:15.558,2447
24/06/2015 23:05:15.562,2446
24/06/2015 23:05:15.566,2444
24/06/2015 23:05:15.570,2441
24/06/2015 23:05:15.574,2436
24/06/2015 23:05:15.578,2431
24/06/2015 23:05:15.582,2426
24/06/2015 23:05:15.586,2421
24/06/2015 23:05:15.590,2418
24/06/2015 23:05:15.594,2416
24/06/2015 23:05:15.598,2414
24/06/2015 23:05:15.602,2413
24/06/2015 23:05:15.606,2411
24/06/2015 23:05:15.610,2409
24/06/2015 23:05:15.614,2406
24/06/2015 23:05:15.618,2404
24/06/2015 23:05:15.622,2403
24/06/2015 23:05:15.626,2402
24/06/2015 23:05:15.630,2399
24/06/2015 23:05:15.634,2396
24/06/2015 23:05:15.638,2392
24/06/2015 23:05:15.642,2390
24/06/2015 23:05:15.646,2388
24/06/2015 23:05:15.650,2387
24/06/2015 23:05:15.654,2386
24/06/2015 23:05:15.658,2384
24/06/2015 23:05:15.662,2383
24/06/2015 23:05:15.666,2382
24/06/2015 23:05:15.670,2382
24/06/2015 23:05:15.674,2383
24/06/2015 23:05:15.678,2384
24/06/2015 23:05:15.682,2384
24/06/2015 23:05:15.686,2384
24/06/2015 23:05:15.690,2382
24/06/2015 23:05:15.694,2378
24/06/2015 23:05:15.698,2374
24/06/2015 23:05:15.702,2371
24/06/2015 23:05:15.706,2369
24/06/2015 23:05:15.710,2368
24/06/2015 23:05:15.714,2367
24/06/2015 23:05:15.718,2363
24/06/2015 23:05:15.722,2358
24/06/2015 23:05:15.726,2353
24/06/2015 23:05:15.730,2348
24/06/2015 23:05:15.734,2345
24/06/2015 23:05:15.738,2343
24/06/2015 23:05:15.742,2341
24/06/2015 23:05:15.746,2340
24/06/2015 23:05:15.750,2339
24/06/2015 23:05:15.754,2338
24/06/2015 23:05:15.758,2337
24/06/2015 23:05:15.762,2336
24/06/2015 23:05:15.766,2334
24/06/2015 23:05:15.770,2331
24/06/2015 23:05:15.774,2328
24/06/2015 23:05:15.778,2322
24/06/2015 23:05:15.782,2312
24/06/2015 23:05:15.786,2298
24/06/2015 23:05:15.790,2287
24/06/2015 23:05:15.794,2288
24/06/2015 23:05:15.798,2313
24/06/2015 23:05:15.802,2374
24/06/2015 23:05:15.806,2474
24/06/2015 23:05:15.810,2593
24/06/2015 23:05:15.814,2693
24/06/2015 23:05:15.818,2732
24/06/2015 23:05:15.822,2684
24/06/2015 23:05:15.826,2560
24/06/2015 23:05:15.830,2406
24/06/2015 23:05:15.834,2275
24/06/2015 23:05:15.838,2205
24/06/2015 23:05:15.842,2198
24/06/2015 23:05:15.846,2228
24/06/2015 23:05:15.850,2263
24/06/2015 23:05:15.854,2281
24/06/2015 23:05:15.858,2283
24/06/2015 23:05:15.862,2276
24/06/2015 23:05:15.866,2268
24/06/2015 23:05:15.870,2261
24/06/2015 23:05:15.874,2256
24/06/2015 23:05:15.878,2252
24/06/2015 23:05:15.882,2249
24/06/2015 23:05:15.886,2246
24/06/2015 23:05:15.890,2245
24/06/2015 23:05:15.894,2244
24/06/2015 23:05:15.898,2243
24/06/2015 23:05:15.902,2241
24/06/2015 23:05:15.906,2239
24/06/2015 23:05:15.910,2237
24/06/2015 23:05:15.914,2235
24/06/2015 23:05:15.918,2233
24/06/2015 23:05:15.922,2230
24/06/2015 23:05:15.926,2227
24/06/2015 23:05:15.930,2225
24/06/2015 23:05:15.934,2223
24/06/2015 23:05:15.938,2222
24/06/2015 23:05:15.942,2221
24/06/2015 23:05:15.946,2220
24/06/2015 23:05:15.950,2219
24/06/2015 23:05:15.954,2218
24/06/2015 23:05:15.958,2218
24/06/2015 23:05:15.962,2217
24/06/2015 23:05:15.966,2218
24/06/2015 23:05:15.970,2218
24/06/2015 23:05:15.974,2218
24/06/2015 23:05:15.978,2218
24/06/2015 23:05:15.982,2217
24/06/2015 23:05:15.986,2216
24/06/2015 23:05:15.990,2216
24/06/2015 23:05:15.994,2216
24/06/2015 23:05:15.998,2217
24/06/2015 23:05:16.002,2218
24/06/2015 23:05:16.006,2219
24/06/2015 23:05:16.010,2220
24/06/2015 23:05:16.014,2221
24/06/2015 23:05:16.018,2222
24/06/2015 23:05:16.022,2221
24/06/2015 23:05:16.026,2221
24/06/2015 23:05:16.030,2220
24/06/2015 23:05:16.034,2220
24/06/2015 23:05:16.038,2221
24/06/2015 23:05:16.042,2223
24/06/2015 23:05:16.046,2225
24/06/2015 23:05:16.050,2227
24/06/2015 23:05:16.054,2227
24/06/2015 23:05:16.058,2227
24/06/2015 23:05:16.062,2226
24/06/2015 23:05:16.066,2226
24/06/2015 23:05:16.070,2225
24/06/2015 23:05:16.074,2225
24/06/2015 23:05:16.078,2224
24/06/2015 23:05:16.082,2223
24/06/2015 23:05:16.086,2221
24/06/2015 23:05:16.090,2219
24/06/2015 23:05:16.094,2216
24/06/2015 23:05:16.098,2213
24/06/2015 23:05:16.102,2210
24/06/2015 23:05:16.106,2206
24/06/2015 23:05:16.110,2202
24/06/2015 23:05:16.114,2199
24/06/2015 23:05:16.118,2196
24/06/2015 23:05:16.122,2193
24/06/2015 23:05:16.126,2191
24/06/2015 23:05:16.130,2188
24/06/2015 23:05:16.134,2185
24/06/2015 23:05:16.138,2182
24/06/2015 23:05:16.142,2178
24/06/2015 23:05:16.146,2175
24/06/2015 23:05:16.150,2172
24/06/2015 23:05:16.154,2170
24/06/2015 23:05:16.158,2168
24/06/2015 23:05:16.162,2167
24/06/2015 23:05:16.166,2166
24/06/2015 23:05:16.170,2165
24/06/2015 23:05:16.174,2164
24/06/2015 23:05:16.178,2163
24/06/2015 23:05:16.182,2162
24/06/2015 23:05:16.186,2161
24/06/2015 23:05:16.190,2160
24/06/2015 23:05:16.194,2160
24/06/2015 23:05:16.198,2159
24/06/2015 23:05:16.202,2160
24/06/2015 23:05:16.206,2160
24/06/2015 23:05:16.210,2160
24/06/2015 23:05:16.214,2160
24/06/2015 23:05:16.218,2159
24/06/2015 23:05:16.222,2158
24/06/2015 23:05:16.226,2157
24/06/2015 23:05:16.230,2157
24/06/2015 23:05:16.234,2156
24/06/2015 23:05:16.238,2156
24/06/2015 23:05:16.242,2156
24/06/2015 23:05:16.246,2155
24/06/2015 23:05:16.250,2155
24/06/2015 23:05:16.254,2155
24/06/2015 23:05:16.258,2154
24/06/2015 23:05:16.262,2153
24/06/2015 23:05:16.266,2152
24/06/2015 23:05:16.270,2151
24/06/2015 23:05:16.274,2150
24/06/2015 23:05:16.278,2150
24/06/2015 23:05:16.282,2149
24/06/2015 23:05:16.286,2149
24/06/2015 23:05:16.290,2147
24/06/2015 23:05:16.294,2145
24/06/2015 23:05:16.298,2144
24/06/2015 23:05:16.302,2143
24/06/2015 23:05:16.306,2141
24/06/2015 23:05:16.310,2140
24/06/2015 23:05:16.314,2139
24/06/2015 23:05:16.318,2139
24/06/2015 23:05:16.322,2139
24/06/2015 23:05:16.326,2139
24/06/2015 23:05:16.330,2138
24/06/2015 23:05:16.334,2138
24/06/2015 23:05:16.338,2137
24/06/2015 23:05:16.342,2136
24/06/2015 23:05:16.346,2135
24/06/2015 23:05:16.350,2134
24/06/2015 23:05:16.354,2134
24/06/2015 23:05:16.358,2133
24/06/2015 23:05:16.362,2132
24/06/2015 23:05:16.366,2131
24/06/2015 23:05:16.370,2129
24/06/2015 23:05:16.374,2128
24/06/2015 23:05:16.378,2127
24/06/2015 23:05:16.382,2127
24/06/2015 23:05:16.386,2127
24/06/2015 23:05:16.390,2127
24/06/2015 23:05:16.394,2127
24/06/2015 23:05:16.398,2128
24/06/2015 23:05:16.402,2128
24/06/2015 23:05:16.406,2127
24/06/2015 23:05:16.410,2127
24/06/2015 23:05:16.414,2126
24/06/2015 23:05:16.418,2126
24/06/2015 23:05:16.422,2125
24/06/2015 23:05:16.426,2125
24/06/2015 23:05:16.430,2124
24/06/2015 23:05:16.434,2124
24/06/2015 23:05:16.438,2124
24/06/2015 23:05:16.442,2124
24/06/2015 23:05:16.446,2124
24/06/2015 23:05:16.450,2123
24/06/2015 23:05:16.454,2122
24/06/2015 23:05:16.458,2121
24/06/2015 23:05:16.462,2120
24/06/2015 23:05:16.466,2119
24/06/2015 23:05:16.470,2119
24/06/2015 23:05:16.474,2119
24/06/2015 23:05:16.478,2119
24/06/2015 23:05:16.482,2119
24/06/2015 23:05:16.486,2119
24/06/2015 23:05:16.490,2118
24/06/2015 23:05:16.494,2116
24/06/2015 23:05:16.498,2115
24/06/2015 23:05:16.502,2114
24/06/2015 23:05:16.506,2114
24/06/2015 23:05:16.510,2115
24/06/2015 23:05:16.514,2117
24/06/2015 23:05:16.518,2119
24/06/2015 23:05:16.522,2121
24/06/2015 23:05:16.526,2123
24/06/2015 23:05:16.530,2123
24/06/2015 23:05:16.534,2122
24/06/2015 23:05:16.538,2120
24/06/2015 23:05:16.542,2118
24/06/2015 23:05:16.546,2116
24/06/2015 23:05:16.550,2114
24/06/2015 23:05:16.554,2112
24/06/2015 23:05:16.558,2111
24/06/2015 23:05:16.562,2109
24/06/2015 23:05:16.566,2107
24/06/2015 23:05:16.570,2106
24/06/2015 23:05:16.574,2103
24/06/2015 23:05:16.578,2101
24/06/2015 23:05:16.582,2099
24/06/2015 23:05:16.586,2098
24/06/2015 23:05:16.590,2097
24/06/2015 23:05:16.594,2097
24/06/2015 23:05:16.598,2097
24/06/2015 23:05:16.602,2096
24/06/2015 23:05:16.606,2096
24/06/2015 23:05:16.610,2096
24/06/2015 23:05:16.614,2095
24/06/2015 23:05:16.618,2091
24/06/2015 23:05:16.622,2083
24/06/2015 23:05:16.626,2073
24/06/2015 23:05:16.630,2066
24/06/2015 23:05:16.634,2072
24/06/2015 23:05:16.638,2104
24/06/2015 23:05:16.642,2175
24/06/2015 23:05:16.646,2283
24/06/2015 23:05:16.650,2402
24/06/2015 23:05:16.654,2490
24/06/2015 23:05:16.658,2505
24/06/2015 23:05:16.662,2431
24/06/2015 23:05:16.666,2292
24/06/2015 23:05:16.670,2140
24/06/2015 23:05:16.674,2028
24/06/2015 23:05:16.678,1981
24/06/2015 23:05:16.682,1992
24/06/2015 23:05:16.686,2030
24/06/2015 23:05:16.690,2064
24/06/2015 23:05:16.694,2082
24/06/2015 23:05:16.698,2084
24/06/2015 23:05:16.702,2081
24/06/2015 23:05:16.706,2078
24/06/2015 23:05:16.710,2077
24/06/2015 23:05:16.714,2076
24/06/2015 23:05:16.718,2077
24/06/2015 23:05:16.722,2077
24/06/2015 23:05:16.726,2077
24/06/2015 23:05:16.730,2076
24/06/2015 23:05:16.734,2076
24/06/2015 23:05:16.738,2075
24/06/2015 23:05:16.742,2073
24/06/2015 23:05:16.746,2073
24/06/2015 23:05:16.750,2072
24/06/2015 23:05:16.754,2073
24/06/2015 23:05:16.758,2075
24/06/2015 23:05:16.762,2077
24/06/2015 23:05:16.766,2079
24/06/2015 23:05:16.770,2080
24/06/2015 23:05:16.774,2080
24/06/2015 23:05:16.778,2079
24/06/2015 23:05:16.782,2077
24/06/2015 23:05:16.786,2076
24/06/2015 23:05:16.790,2076
24/06/2015 23:05:16.794,2077
24/06/2015 23:05:16.798,2079
24/06/2015 23:05:16.802,2081
24/06/2015 23:05:16.806,2082
24/06/2015 23:05:16.810,2082
24/06/2015 23:05:16.814,2080
24/06/2015 23:05:16.818,2079
24/06/2015 23:05:16.822,2078
24/06/2015 23:05:16.826,2078
24/06/2015 23:05:16.830,2079
24/06/2015 23:05:16.834,2081
24/06/2015 23:05:16.838,2083
24/06/2015 23:05:16.842,2085
24/06/2015 23:05:16.846,2087
24/06/2015 23:05:16.850,2088
24/06/2015 23:05:16.854,2088
24/06/2015 23:05:16.858,2089
24/06/2015 23:05:16.862,2090
24/06/2015 23:05:16.866,2092
24/06/2015 23:05:16.870,2093
24/06/2015 23:05:16.874,2096
24/06/2015 23:05:16.878,2098
24/06/2015 23:05:16.882,2100
24/06/2015 23:05:16.886,2102
24/06/2015 23:05:16.890,2103
24/06/2015 23:05:16.894,2103
24/06/2015 23:05:16.898,2104
24/06/2015 23:05:16.902,2104
24/06/2015 23:05:16.906,2105
24/06/2015 23:05:16.910,2105
24/06/2015 23:05:16.914,2104
24/06/2015 23:05:16.918,2104
24/06/2015 23:05:16.922,2103
24/06/2015 23:05:16.926,2101
24/06/2015 23:05:16.930,2100
24/06/2015 23:05:16.934,2098
24/06/2015 23:05:16.938,2094
24/06/2015 23:05:16.942,2091
24/06/2015 23:05:16.946,2087
24/06/2015 23:05:16.950,2084
24/06/2015 23:05:16.954,2082
24/06/2015 23:05:16.958,2080
24/06/2015 23:05:16.962,2079
24/06/2015 23:05:16.966,2077
24/06/2015 23:05:16.970,2075
24/06/2015 23:05:16.974,2071
24/06/2015 23:05:16.978,2067
24/06/2015 23:05:16.982,2063
24/06/2015 23:05:16.986,2060
24/06/2015 23:05:16.990,2058
24/06/2015 23:05:16.994,2056
24/06/2015 23:05:16.998,2056
24/06/2015 23:05:17.002,2055
24/06/2015 23:05:17.006,2055
24/06/2015 23:05:17.010,2054
24/06/2015 23:05:17.014,2053
24/06/2015 23:05:17.018,2052
24/06/2015 23:05:17.022,2051
24/06/2015 23:05:17.026,2050
24/06/2015 23:05:17.030,2051
24/06/2015 23:05:17.034,2052
24/06/2015 23:05:17.038,2054
24/06/2015 23:05:17.042,2055
24/06/2015 23:05:17.046,2055
24/06/2015 23:05:17.050,2055
24/06/2015 23:05:17.054,2054
24/06/2015 23:05:17.058,2054
24/06/2015 23:05:17.062,2054
24/06/2015 23:05:17.066,2054
24/06/2015 23:05:17.070,2055
24/06/2015 23:05:17.074,2055
24/06/2015 23:05:17.078,2055
24/06/2015 23:05:17.082,2055
24/06/2015 23:05:17.086,2055
24/06/2015 23:05:17.090,2055
24/06/2015 23:05:17.094,2056
24/06/2015 23:05:17.098,2057
24/06/2015 23:05:17.102,2058
24/06/2015 23:05:17.106,2058
24/06/2015 23:05:17.110,2058
24/06/2015 23:05:17.114,2058
24/06/2015 23:05:17.118,2059
24/06/2015 23:05:17.122,2058
24/06/2015 23:05:17.126,2058
24/06/2015 23:05:17.130,2057
24/06/2015 23:05:17.134,2056
24/06/2015 23:05:17.138,2056
24/06/2015 23:05:17.142,2055
24/06/2015 23:05:17.146,2056
24/06/2015 23:05:17.150,2056
24/06/2015 23:05:17.154,2056
24/06/2015 23:05:17.158,2056
24/06/2015 23:05:17.162,2056
24/06/2015 23:05:17.166,2055
24/06/2015 23:05:17.170,2055
24/06/2015 23:05:17.174,2055
24/06/2015 23:05:17.178,2055
24/06/2015 23:05:17.182,2056
24/06/2015 23:05:17.186,2056
24/06/2015 23:05:17.190,2055
24/06/2015 23:05:17.194,2054
24/06/2015 23:05:17.198,2053
24/06/2015 23:05:17.202,2052
24/06/2015 23:05:17.206,2052
24/06/2015 23:05:17.210,2052
24/06/2015 23:05:17.214,2051
24/06/2015 23:05:17.218,2051
24/06/2015 23:05:17.222,2050
24/06/2015 23:05:17.226,2050
24/06/2015 23:05:17.230,2050
24/06/2015 23:05:17.234,2050
24/06/2015 23:05:17.238,2051
24/06/2015 23:05:17.242,2051
24/06/2015 23:05:17.246,2052
24/06/2015 23:05:17.250,2052
24/06/2015 23:05:17.254,2051
24/06/2015 23:05:17.258,2051
24/06/2015 23:05:17.262,2051
24/06/2015 23:05:17.266,2051
24/06/2015 23:05:17.270,2050
24/06/2015 23:05:17.274,2049
24/06/2015 23:05:17.278,2048
24/06/2015 23:05:17.282,2049
24/06/2015 23:05:17.286,2049
24/06/2015 23:05:17.290,2049
24/06/2015 23:05:17.294,2050
24/06/2015 23:05:17.298,2049
24/06/2015 23:05:17.302,2050
24/06/2015 23:05:17.306,2050
24/06/2015 23:05:17.310,2052
24/06/2015 23:05:17.314,2054
24/06/2015 23:05:17.318,2057
24/06/2015 23:05:17.322,2060
24/06/2015 23:05:17.326,2062
24/06/2015 23:05:17.330,2063
24/06/2015 23:05:17.334,2062
24/06/2015 23:05:17.338,2061
24/06/2015 23:05:17.342,2060
24/06/2015 23:05:17.346,2059
24/06/2015 23:05:17.350,2059
24/06/2015 23:05:17.354,2059
24/06/2015 23:05:17.358,2058
24/06/2015 23:05:17.362,2057
24/06/2015 23:05:17.366,2055
24/06/2015 23:05:17.370,2053
24/06/2015 23:05:17.374,2052
24/06/2015 23:05:17.378,2051
24/06/2015 23:05:17.382,2051
24/06/2015 23:05:17.386,2051
24/06/2015 23:05:17.390,2051
24/06/2015 23:05:17.394,2051
24/06/2015 23:05:17.398,2052
24/06/2015 23:05:17.402,2052
24/06/2015 23:05:17.406,2052
24/06/2015 23:05:17.410,2053
24/06/2015 23:05:17.414,2052
24/06/2015 23:05:17.418,2049
24/06/2015 23:05:17.422,2042
24/06/2015 23:05:17.426,2033
24/06/2015 23:05:17.430,2026
24/06/2015 23:05:17.434,2030
24/06/2015 23:05:17.438,2058
24/06/2015 23:05:17.442,2124
24/06/2015 23:05:17.446,2229
24/06/2015 23:05:17.450,2353
24/06/2015 23:05:17.454,2454
24/06/2015 23:05:17.458,2484
24/06/2015 23:05:17.462,2420
24/06/2015 23:05:17.466,2278
24/06/2015 23:05:17.470,2109
24/06/2015 23:05:17.474,1975
24/06/2015 23:05:17.478,1912
24/06/2015 23:05:17.482,1920
24/06/2015 23:05:17.486,1966
24/06/2015 23:05:17.490,2014
24/06/2015 23:05:17.494,2042
24/06/2015 23:05:17.498,2048
24/06/2015 23:05:17.502,2043
24/06/2015 23:05:17.506,2038
24/06/2015 23:05:17.510,2035
24/06/2015 23:05:17.514,2035
24/06/2015 23:05:17.518,2036
24/06/2015 23:05:17.522,2037
24/06/2015 23:05:17.526,2038
24/06/2015 23:05:17.530,2038
24/06/2015 23:05:17.534,2037
24/06/2015 23:05:17.538,2036
24/06/2015 23:05:17.542,2035
24/06/2015 23:05:17.546,2035
24/06/2015 23:05:17.550,2035
24/06/2015 23:05:17.554,2036
24/06/2015 23:05:17.558,2037
24/06/2015 23:05:17.562,2037
24/06/2015 23:05:17.566,2038
24/06/2015 23:05:17.570,2038
24/06/2015 23:05:17.574,2038
24/06/2015 23:05:17.578,2037
24/06/2015 23:05:17.582,2036
24/06/2015 23:05:17.586,2036
24/06/2015 23:05:17.590,2035
24/06/2015 23:05:17.594,2035
24/06/2015 23:05:17.598,2035
24/06/2015 23:05:17.602,2036
24/06/2015 23:05:17.606,2036
24/06/2015 23:05:17.610,2037
24/06/2015 23:05:17.614,2037
24/06/2015 23:05:17.618,2038
24/06/2015 23:05:17.622,2038
24/06/2015 23:05:17.626,2037
24/06/2015 23:05:17.630,2038
24/06/2015 23:05:17.634,2039
24/06/2015 23:05:17.638,2040
24/06/2015 23:05:17.642,2043
24/06/2015 23:05:17.646,2045
24/06/2015 23:05:17.650,2047
24/06/2015 23:05:17.654,2048
24/06/2015 23:05:17.658,2048
24/06/2015 23:05:17.662,2048
24/06/2015 23:05:17.666,2050
24/06/2015 23:05:17.670,2053
24/06/2015 23:05:17.674,2055
24/06/2015 23:05:17.678,2058
24/06/2015 23:05:17.682,2061
24/06/2015 23:05:17.686,2064
24/06/2015 23:05:17.690,2065
24/06/2015 23:05:17.694,2066
24/06/2015 23:05:17.698,2066
24/06/2015 23:05:17.702,2066
24/06/2015 23:05:17.706,2066
24/06/2015 23:05:17.710,2066
24/06/2015 23:05:17.714,2065
24/06/2015 23:05:17.718,2064
24/06/2015 23:05:17.722,2063
24/06/2015 23:05:17.726,2062
24/06/2015 23:05:17.730,2060
24/06/2015 23:05:17.734,2058
24/06/2015 23:05:17.738,2056
24/06/2015 23:05:17.742,2053
24/06/2015 23:05:17.746,2049
24/06/2015 23:05:17.750,2046
24/06/2015 23:05:17.754,2042
24/06/2015 23:05:17.758,2039
24/06/2015 23:05:17.762,2036
24/06/2015 23:05:17.766,2033
24/06/2015 23:05:17.770,2030
24/06/2015 23:05:17.774,2027
24/06/2015 23:05:17.778,2023
24/06/2015 23:05:17.782,2020
24/06/2015 23:05:17.786,2017
24/06/2015 23:05:17.790,2016
24/06/2015 23:05:17.794,2014
24/06/2015 23:05:17.798,2013
24/06/2015 23:05:17.802,2013
24/06/2015 23:05:17.806,2012
24/06/2015 23:05:17.810,2012
24/06/2015 23:05:17.814,2012
24/06/2015 23:05:17.818,2012
24/06/2015 23:05:17.822,2011
24/06/2015 23:05:17.826,2011
24/06/2015 23:05:17.830,2010
24/06/2015 23:05:17.834,2010
24/06/2015 23:05:17.838,2011
24/06/2015 23:05:17.842,2011
24/06/2015 23:05:17.846,2012
24/06/2015 23:05:17.850,2012
24/06/2015 23:05:17.854,2012
24/06/2015 23:05:17.858,2012
24/06/2015 23:05:17.862,2012
24/06/2015 23:05:17.866,2013
24/06/2015 23:05:17.870,2013
24/06/2015 23:05:17.874,2014
24/06/2015 23:05:17.878,2014
24/06/2015 23:05:17.882,2014
24/06/2015 23:05:17.886,2014
24/06/2015 23:05:17.890,2014
24/06/2015 23:05:17.894,2015
24/06/2015 23:05:17.898,2016
24/06/2015 23:05:17.902,2016
24/06/2015 23:05:17.906,2016
24/06/2015 23:05:17.910,2016
24/06/2015 23:05:17.914,2016
24/06/2015 23:05:17.918,2015
24/06/2015 23:05:17.922,2015
24/06/2015 23:05:17.926,2014
24/06/2015 23:05:17.930,2014
24/06/2015 23:05:17.934,2014
24/06/2015 23:05:17.938,2013
24/06/2015 23:05:17.942,2013
24/06/2015 23:05:17.946,2012
24/06/2015 23:05:17.950,2012
24/06/2015 23:05:17.954,2012
24/06/2015 23:05:17.958,2012
24/06/2015 23:05:17.962,2013
24/06/2015 23:05:17.966,2013
24/06/2015 23:05:17.970,2012
24/06/2015 23:05:17.974,2011
24/06/2015 23:05:17.978,2009
24/06/2015 23:05:17.982,2009
24/06/2015 23:05:17.986,2009
24/06/2015 23:05:17.990,2010
24/06/2015 23:05:17.994,2011
24/06/2015 23:05:17.998,2013
24/06/2015 23:05:18.002,2013
24/06/2015 23:05:18.006,2013
24/06/2015 23:05:18.010,2013
24/06/2015 23:05:18.014,2012
24/06/2015 23:05:18.018,2012
24/06/2015 23:05:18.022,2012
24/06/2015 23:05:18.026,2013
24/06/2015 23:05:18.030,2013
24/06/2015 23:05:18.034,2012
24/06/2015 23:05:18.038,2012
24/06/2015 23:05:18.042,2011
24/06/2015 23:05:18.046,2011
24/06/2015 23:05:18.050,2011
24/06/2015 23:05:18.054,2011
24/06/2015 23:05:18.058,2011
24/06/2015 23:05:18.062,2010
24/06/2015 23:05:18.066,2010
24/06/2015 23:05:18.070,2010
24/06/2015 23:05:18.074,2010
24/06/2015 23:05:18.078,2011
24/06/2015 23:05:18.082,2011
24/06/2015 23:05:18.086,2010
24/06/2015 23:05:18.090,2009
24/06/2015 23:05:18.094,2008
24/06/2015 23:05:18.098,2007
24/06/2015 23:05:18.102,2006
24/06/2015 23:05:18.106,2006
24/06/2015 23:05:18.110,2006
24/06/2015 23:05:18.114,2006
24/06/2015 23:05:18.118,2006
24/06/2015 23:05:18.122,2007
24/06/2015 23:05:18.126,2007
24/06/2015 23:05:18.130,2008
24/06/2015 23:05:18.134,2009
24/06/2015 23:05:18.138,2010
24/06/2015 23:05:18.142,2011
24/06/2015 23:05:18.146,2013
24/06/2015 23:05:18.150,2015
24/06/2015 23:05:18.154,2016
24/06/2015 23:05:18.158,2018
24/06/2015 23:05:18.162,2019
24/06/2015 23:05:18.166,2019
24/06/2015 23:05:18.170,2018
24/06/2015 23:05:18.174,2017
24/06/2015 23:05:18.178,2016
24/06/2015 23:05:18.182,2015
24/06/2015 23:05:18.186,2014
24/06/2015 23:05:18.190,2013
24/06/2015 23:05:18.194,2012
24/06/2015 23:05:18.198,2011
24/06/2015 23:05:18.202,2010
24/06/2015 23:05:18.206,2009
24/06/2015 23:05:18.210,2009
24/06/2015 23:05:18.214,2009
24/06/2015 23:05:18.218,2009
24/06/2015 23:05:18.222,2010
24/06/2015 23:05:18.226,2010
24/06/2015 23:05:18.230,2010
24/06/2015 23:05:18.234,2011
24/06/2015 23:05:18.238,2013
24/06/2015 23:05:18.242,2013
24/06/2015 23:05:18.246,2011
24/06/2015 23:05:18.250,2004
24/06/2015 23:05:18.254,1995
24/06/2015 23:05:18.258,1987
24/06/2015 23:05:18.262,1993
24/06/2015 23:05:18.266,2026
24/06/2015 23:05:18.270,2098
24/06/2015 23:05:18.274,2208
24/06/2015 23:05:18.278,2330
24/06/2015 23:05:18.282,2420
24/06/2015 23:05:18.286,2435
24/06/2015 23:05:18.290,2359
24/06/2015 23:05:18.294,2217
24/06/2015 23:05:18.298,2061
24/06/2015 23:05:18.302,1946
24/06/2015 23:05:18.306,1899
24/06/2015 23:05:18.310,1912
24/06/2015 23:05:18.314,1954
24/06/2015 23:05:18.318,1994
24/06/2015 23:05:18.322,2015
24/06/2015 23:05:18.326,2018
24/06/2015 23:05:18.330,2014
24/06/2015 23:05:18.334,2009
24/06/2015 23:05:18.338,2006
24/06/2015 23:05:18.342,2004
24/06/2015 23:05:18.346,2003
24/06/2015 23:05:18.350,2002
24/06/2015 23:05:18.354,2001
24/06/2015 23:05:18.358,2001
24/06/2015 23:05:18.362,2003
24/06/2015 23:05:18.366,2004
24/06/2015 23:05:18.370,2006
24/06/2015 23:05:18.374,2006
24/06/2015 23:05:18.378,2006
24/06/2015 23:05:18.382,2006
24/06/2015 23:05:18.386,2006
24/06/2015 23:05:18.390,2007
24/06/2015 23:05:18.394,2008
24/06/2015 23:05:18.398,2009
24/06/2015 23:05:18.402,2010
24/06/2015 23:05:18.406,2010
24/06/2015 23:05:18.410,2010
24/06/2015 23:05:18.414,2010
24/06/2015 23:05:18.418,2010
24/06/2015 23:05:18.422,2010
24/06/2015 23:05:18.426,2010
24/06/2015 23:05:18.430,2011
24/06/2015 23:05:18.434,2012
24/06/2015 23:05:18.438,2013
24/06/2015 23:05:18.442,2014
24/06/2015 23:05:18.446,2015
24/06/2015 23:05:18.450,2016
24/06/2015 23:05:18.454,2016
24/06/2015 23:05:18.458,2016
24/06/2015 23:05:18.462,2016
24/06/2015 23:05:18.466,2017
24/06/2015 23:05:18.470,2019
24/06/2015 23:05:18.474,2020
24/06/2015 23:05:18.478,2023
24/06/2015 23:05:18.482,2025
24/06/2015 23:05:18.486,2027
24/06/2015 23:05:18.490,2029
24/06/2015 23:05:18.494,2031
24/06/2015 23:05:18.498,2032
24/06/2015 23:05:18.502,2033
24/06/2015 23:05:18.506,2035
24/06/2015 23:05:18.510,2036
24/06/2015 23:05:18.514,2038
24/06/2015 23:05:18.518,2040
24/06/2015 23:05:18.522,2041
24/06/2015 23:05:18.526,2042
24/06/2015 23:05:18.530,2043
24/06/2015 23:05:18.534,2043
24/06/2015 23:05:18.538,2042
24/06/2015 23:05:18.542,2041
24/06/2015 23:05:18.546,2040
24/06/2015 23:05:18.550,2039
24/06/2015 23:05:18.554,2038
24/06/2015 23:05:18.558,2037
24/06/2015 23:05:18.562,2036
24/06/2015 23:05:18.566,2034
24/06/2015 23:05:18.570,2031
24/06/2015 23:05:18.574,2028
24/06/2015 23:05:18.578,2024
24/06/2015 23:05:18.582,2020
24/06/2015 23:05:18.586,2016
24/06/2015 23:05:18.590,2013
24/06/2015 23:05:18.594,2010
24/06/2015 23:05:18.598,2007
24/06/2015 23:05:18.602,2004
24/06/2015 23:05:18.606,2002
24/06/2015 23:05:18.610,1999
24/06/2015 23:05:18.614,1996
24/06/2015 23:05:18.618,1993
24/06/2015 23:05:18.622,1990
24/06/2015 23:05:18.626,1988
24/06/2015 23:05:18.630,1986
24/06/2015 23:05:18.634,1985
24/06/2015 23:05:18.638,1984
24/06/2015 23:05:18.642,1984
24/06/2015 23:05:18.646,1984
24/06/2015 23:05:18.650,1984
24/06/2015 23:05:18.654,1984
24/06/2015 23:05:18.658,1983
24/06/2015 23:05:18.662,1981
24/06/2015 23:05:18.666,1979
24/06/2015 23:05:18.670,1976
24/06/2015 23:05:18.674,1973
24/06/2015 23:05:18.678,1971
24/06/2015 23:05:18.682,1970
24/06/2015 23:05:18.686,1969
24/06/2015 23:05:18.690,1969
24/06/2015 23:05:18.694,1971
24/06/2015 23:05:18.698,1973
24/06/2015 23:05:18.702,1975
24/06/2015 23:05:18.706,1978
24/06/2015 23:05:18.710,1981
24/06/2015 23:05:18.714,1983
24/06/2015 23:05:18.718,1986
24/06/2015 23:05:18.722,1988
24/06/2015 23:05:18.726,1990
24/06/2015 23:05:18.730,1991
24/06/2015 23:05:18.734,1993
24/06/2015 23:05:18.738,1994
24/06/2015 23:05:18.742,1994
24/06/2015 23:05:18.746,1995
24/06/2015 23:05:18.750,1996
24/06/2015 23:05:18.754,1997
24/06/2015 23:05:18.758,1998
24/06/2015 23:05:18.762,1999
24/06/2015 23:05:18.766,2000
24/06/2015 23:05:18.770,2000
24/06/2015 23:05:18.774,2000
24/06/2015 23:05:18.778,2000
24/06/2015 23:05:18.782,2001
24/06/2015 23:05:18.786,2001
24/06/2015 23:05:18.790,2002
24/06/2015 23:05:18.794,2003
24/06/2015 23:05:18.798,2003
24/06/2015 23:05:18.802,2003
24/06/2015 23:05:18.806,2003
24/06/2015 23:05:18.810,2004
24/06/2015 23:05:18.814,2004
24/06/2015 23:05:18.818,2005
24/06/2015 23:05:18.822,2005
24/06/2015 23:05:18.826,2005
24/06/2015 23:05:18.830,2006
24/06/2015 23:05:18.834,2006
24/06/2015 23:05:18.838,2006
24/06/2015 23:05:18.842,2006
24/06/2015 23:05:18.846,2006
24/06/2015 23:05:18.850,2006
24/06/2015 23:05:18.854,2006
24/06/2015 23:05:18.858,2005
24/06/2015 23:05:18.862,2005
24/06/2015 23:05:18.866,2005
24/06/2015 23:05:18.870,2006
24/06/2015 23:05:18.874,2007
24/06/2015 23:05:18.878,2008
24/06/2015 23:05:18.882,2008
24/06/2015 23:05:18.886,2007
24/06/2015 23:05:18.890,2007
24/06/2015 23:05:18.894,2006
24/06/2015 23:05:18.898,2005
24/06/2015 23:05:18.902,2006
24/06/2015 23:05:18.906,2006
24/06/2015 23:05:18.910,2007
24/06/2015 23:05:18.914,2008
24/06/2015 23:05:18.918,2008
24/06/2015 23:05:18.922,2008
24/06/2015 23:05:18.926,2007
24/06/2015 23:05:18.930,2007
24/06/2015 23:05:18.934,2006
24/06/2015 23:05:18.938,2005
24/06/2015 23:05:18.942,2004
24/06/2015 23:05:18.946,2005
24/06/2015 23:05:18.950,2005
24/06/2015 23:05:18.954,2006
24/06/2015 23:05:18.958,2007
24/06/2015 23:05:18.962,2007
24/06/2015 23:05:18.966,2007
24/06/2015 23:05:18.970,2006
24/06/2015 23:05:18.974,2006
24/06/2015 23:05:18.978,2006
24/06/2015 23:05:18.982,2007
24/06/2015 23:05:18.986,2009
24/06/2015 23:05:18.990,2011
24/06/2015 23:05:18.994,2013
24/06/2015 23:05:18.998,2015
24/06/2015 23:05:19.002,2016
24/06/2015 23:05:19.006,2017
24/06/2015 23:05:19.010,2017
24/06/2015 23:05:19.014,2016
24/06/2015 23:05:19.018,2015
24/06/2015 23:05:19.022,2014
24/06/2015 23:05:19.026,2013
24/06/2015 23:05:19.030,2013
24/06/2015 23:05:19.034,2012
24/06/2015 23:05:19.038,2012
24/06/2015 23:05:19.042,2010
24/06/2015 23:05:19.046,2009
24/06/2015 23:05:19.050,2008
24/06/2015 23:05:19.054,2008
24/06/2015 23:05:19.058,2009
24/06/2015 23:05:19.062,2010
24/06/2015 23:05:19.066,2011
24/06/2015 23:05:19.070,2012
24/06/2015 23:05:19.074,2012
24/06/2015 23:05:19.078,2013
24/06/2015 23:05:19.082,2014
24/06/2015 23:05:19.086,2015
24/06/2015 23:05:19.090,2012
24/06/2015 23:05:19.094,2005
24/06/2015 23:05:19.098,1995
24/06/2015 23:05:19.102,1988
24/06/2015 23:05:19.106,1995
24/06/2015 23:05:19.110,2031
24/06/2015 23:05:19.114,2105
24/06/2015 23:05:19.118,2216
24/06/2015 23:05:19.122,2334
24/06/2015 23:05:19.126,2416
24/06/2015 23:05:19.130,2421
24/06/2015 23:05:19.134,2337
24/06/2015 23:05:19.138,2192
24/06/2015 23:05:19.142,2040
24/06/2015 23:05:19.146,1931
24/06/2015 23:05:19.150,1890
24/06/2015 23:05:19.154,1906
24/06/2015 23:05:19.158,1948
24/06/2015 23:05:19.162,1986
24/06/2015 23:05:19.166,2004
24/06/2015 23:05:19.170,2006
24/06/2015 23:05:19.174,2001
24/06/2015 23:05:19.178,1995
24/06/2015 23:05:19.182,1992
24/06/2015 23:05:19.186,1991
24/06/2015 23:05:19.190,1992
24/06/2015 23:05:19.194,1993
24/06/2015 23:05:19.198,1995
24/06/2015 23:05:19.202,1996
24/06/2015 23:05:19.206,1996
24/06/2015 23:05:19.210,1995
24/06/2015 23:05:19.214,1995
24/06/2015 23:05:19.218,1996
24/06/2015 23:05:19.222,1997
24/06/2015 23:05:19.226,1997
24/06/2015 23:05:19.230,1998
24/06/2015 23:05:19.234,1999
24/06/2015 23:05:19.238,1999
24/06/2015 23:05:19.242,2000
24/06/2015 23:05:19.246,2001
24/06/2015 23:05:19.250,2002
24/06/2015 23:05:19.254,2004
24/06/2015 23:05:19.258,2005
24/06/2015 23:05:19.262,2006
24/06/2015 23:05:19.266,2007
24/06/2015 23:05:19.270,2007
24/06/2015 23:05:19.274,2007
24/06/2015 23:05:19.278,2007
24/06/2015 23:05:19.282,2008
24/06/2015 23:05:19.286,2009
24/06/2015 23:05:19.290,2010
24/06/2015 23:05:19.294,2011
24/06/2015 23:05:19.298,2013
24/06/2015 23:05:19.302,2015
24/06/2015 23:05:19.306,2016
24/06/2015 23:05:19.310,2019
24/06/2015 23:05:19.314,2020
24/06/2015 23:05:19.318,2022
24/06/2015 23:05:19.322,2024
24/06/2015 23:05:19.326,2025
24/06/2015 23:05:19.330,2027
24/06/2015 23:05:19.334,2028
24/06/2015 23:05:19.338,2030
24/06/2015 23:05:19.342,2032
24/06/2015 23:05:19.346,2032
24/06/2015 23:05:19.350,2032
24/06/2015 23:05:19.354,2032
24/06/2015 23:05:19.358,2033
24/06/2015 23:05:19.362,2035
24/06/2015 23:05:19.366,2037
24/06/2015 23:05:19.370,2039
24/06/2015 23:05:19.374,2041
24/06/2015 23:05:19.378,2043
24/06/2015 23:05:19.382,2044
24/06/2015 23:05:19.386,2043
24/06/2015 23:05:19.390,2042
24/06/2015 23:05:19.394,2041
24/06/2015 23:05:19.398,2040
24/06/2015 23:05:19.402,2038
24/06/2015 23:05:19.406,2036
24/06/2015 23:05:19.410,2033
24/06/2015 23:05:19.414,2030
24/06/2015 23:05:19.418,2027
24/06/2015 23:05:19.422,2024
24/06/2015 23:05:19.426,2021
24/06/2015 23:05:19.430,2017
24/06/2015 23:05:19.434,2013
24/06/2015 23:05:19.438,2011
24/06/2015 23:05:19.442,2009
24/06/2015 23:05:19.446,2007
24/06/2015 23:05:19.450,2005
24/06/2015 23:05:19.454,2003
24/06/2015 23:05:19.458,2001
24/06/2015 23:05:19.462,1999
24/06/2015 23:05:19.466,1997
24/06/2015 23:05:19.470,1996
24/06/2015 23:05:19.474,1996
24/06/2015 23:05:19.478,1995
24/06/2015 23:05:19.482,1994
24/06/2015 23:05:19.486,1994
24/06/2015 23:05:19.490,1993
24/06/2015 23:05:19.494,1993
24/06/2015 23:05:19.498,1992
24/06/2015 23:05:19.502,1990
24/06/2015 23:05:19.506,1990
24/06/2015 23:05:19.510,1990
24/06/2015 23:05:19.514,1991
24/06/2015 23:05:19.518,1992
24/06/2015 23:05:19.522,1994
24/06/2015 23:05:19.526,1995
24/06/2015 23:05:19.530,1996
24/06/2015 23:05:19.534,1997
24/06/2015 23:05:19.538,1998
24/06/2015 23:05:19.542,1998
24/06/2015 23:05:19.546,1998
24/06/2015 23:05:19.550,1998
24/06/2015 23:05:19.554,1999
24/06/2015 23:05:19.558,1999
24/06/2015 23:05:19.562,1999
24/06/2015 23:05:19.566,1998
24/06/2015 23:05:19.570,1997
24/06/2015 23:05:19.574,1996
24/06/2015 23:05:19.578,1996
24/06/2015 23:05:19.582,1996
24/06/2015 23:05:19.586,1998
24/06/2015 23:05:19.590,2000
24/06/2015 23:05:19.594,2000
24/06/2015 23:05:19.598,2000
24/06/2015 23:05:19.602,2000
24/06/2015 23:05:19.606,1999
24/06/2015 23:05:19.610,1998
24/06/2015 23:05:19.614,1997
24/06/2015 23:05:19.618,1997
24/06/2015 23:05:19.622,1997
24/06/2015 23:05:19.626,1996
24/06/2015 23:05:19.630,1995
24/06/2015 23:05:19.634,1994
24/06/2015 23:05:19.638,1994
24/06/2015 23:05:19.642,1994
24/06/2015 23:05:19.646,1995
24/06/2015 23:05:19.650,1996
24/06/2015 23:05:19.654,1997
24/06/2015 23:05:19.658,1996
24/06/2015 23:05:19.662,1995
24/06/2015 23:05:19.666,1995
24/06/2015 23:05:19.670,1995
24/06/2015 23:05:19.674,1995
24/06/2015 23:05:19.678,1996
24/06/2015 23:05:19.682,1996
24/06/2015 23:05:19.686,1996
24/06/2015 23:05:19.690,1996
24/06/2015 23:05:19.694,1996
24/06/2015 23:05:19.698,1995
24/06/2015 23:05:19.702,1995
24/06/2015 23:05:19.706,1995
24/06/2015 23:05:19.710,1995
24/06/2015 23:05:19.714,1996
24/06/2015 23:05:19.718,1996
24/06/2015 23:05:19.722,1997
24/06/2015 23:05:19.726,1998
24/06/2015 23:05:19.730,1998
24/06/2015 23:05:19.734,1997
24/06/2015 23:05:19.738,1996
24/06/2015 23:05:19.742,1995
24/06/2015 23:05:19.746,1995
24/06/2015 23:05:19.750,1995
24/06/2015 23:05:19.754,1996
24/06/2015 23:05:19.758,1997
24/06/2015 23:05:19.762,1997
24/06/2015 23:05:19.766,1997
24/06/2015 23:05:19.770,1997
24/06/2015 23:05:19.774,1996
24/06/2015 23:05:19.778,1995
24/06/2015 23:05:19.782,1995
24/06/2015 23:05:19.786,1996
24/06/2015 23:05:19.790,1997
24/06/2015 23:05:19.794,1999
24/06/2015 23:05:19.798,2002
24/06/2015 23:05:19.802,2004
24/06/2015 23:05:19.806,2006
24/06/2015 23:05:19.810,2007
24/06/2015 23:05:19.814,2006
24/06/2015 23:05:19.818,2005
24/06/2015 23:05:19.822,2004
24/06/2015 23:05:19.826,2003
24/06/2015 23:05:19.830,2002
24/06/2015 23:05:19.834,2002
24/06/2015 23:05:19.838,2001
24/06/2015 23:05:19.842,2000
24/06/2015 23:05:19.846,1998
24/06/2015 23:05:19.850,1997
24/06/2015 23:05:19.854,1996
24/06/2015 23:05:19.858,1996
24/06/2015 23:05:19.862,1997
24/06/2015 23:05:19.866,1999
24/06/2015 23:05:19.870,2000
24/06/2015 23:05:19.874,1999
24/06/2015 23:05:19.878,1998
24/06/2015 23:05:19.882,1997
24/06/2015 23:05:19.886,1997
24/06/2015 23:05:19.890,1998
24/06/2015 23:05:19.894,1998
24/06/2015 23:05:19.898,1995
24/06/2015 23:05:19.902,1987
24/06/2015 23:05:19.906,1977
24/06/2015 23:05:19.910,1973
24/06/2015 23:05:19.914,1988
24/06/2015 23:05:19.918,2035
24/06/2015 23:05:19.922,2120
24/06/2015 23:05:19.926,2239
24/06/2015 23:05:19.930,2358
24/06/2015 23:05:19.934,2431
24/06/2015 23:05:19.938,2418
24/06/2015 23:05:19.942,2313
24/06/2015 23:05:19.946,2151
24/06/2015 23:05:19.950,1991
24/06/2015 23:05:19.954,1886
24/06/2015 23:05:19.958,1858
24/06/2015 23:05:19.962,1889
24/06/2015 23:05:19.966,1942
24/06/2015 23:05:19.970,1983
24/06/2015 23:05:19.974,2001
24/06/2015 23:05:19.978,2000
24/06/2015 23:05:19.982,1994
24/06/2015 23:05:19.986,1990
24/06/2015 23:05:19.990,1988
24/06/2015 23:05:19.994,1989
24/06/2015 23:05:19.998,1990
24/06/2015 23:05:20.002,1990
24/06/2015 23:05:20.006,1990
24/06/2015 23:05:20.010,1990
24/06/2015 23:05:20.014,1991
24/06/2015 23:05:20.018,1992
24/06/2015 23:05:20.022,1993
24/06/2015 23:05:20.026,1993
24/06/2015 23:05:20.030,1994
24/06/2015 23:05:20.034,1995
24/06/2015 23:05:20.038,1995
24/06/2015 23:05:20.042,1996
24/06/2015 23:05:20.046,1996
24/06/2015 23:05:20.050,1997
24/06/2015 23:05:20.054,1997
24/06/2015 23:05:20.058,1998
24/06/2015 23:05:20.062,1999
24/06/2015 23:05:20.066,2000
24/06/2015 23:05:20.070,2001
24/06/2015 23:05:20.074,2003
24/06/2015 23:05:20.078,2005
24/06/2015 23:05:20.082,2006
24/06/2015 23:05:20.086,2008
24/06/2015 23:05:20.090,2009
24/06/2015 23:05:20.094,2009
24/06/2015 23:05:20.098,2010
24/06/2015 23:05:20.102,2011
24/06/2015 23:05:20.106,2012
24/06/2015 23:05:20.110,2014
24/06/2015 23:05:20.114,2016
24/06/2015 23:05:20.118,2019
24/06/2015 23:05:20.122,2022
24/06/2015 23:05:20.126,2024
24/06/2015 23:05:20.130,2025
24/06/2015 23:05:20.134,2025
24/06/2015 23:05:20.138,2026
24/06/2015 23:05:20.142,2027
24/06/2015 23:05:20.146,2029
24/06/2015 23:05:20.150,2032
24/06/2015 23:05:20.154,2036
24/06/2015 23:05:20.158,2039
24/06/2015 23:05:20.162,2043
24/06/2015 23:05:20.166,2046
24/06/2015 23:05:20.170,2048
24/06/2015 23:05:20.174,2049
24/06/2015 23:05:20.178,2049
24/06/2015 23:05:20.182,2048
24/06/2015 23:05:20.186,2048
24/06/2015 23:05:20.190,2048
24/06/2015 23:05:20.194,2048
24/06/2015 23:05:20.198,2050
24/06/2015 23:05:20.202,2051
24/06/2015 23:05:20.206,2049
24/06/2015 23:05:20.210,2048
24/06/2015 23:05:20.214,2044
24/06/2015 23:05:20.218,2040
24/06/2015 23:05:20.222,2036
24/06/2015 23:05:20.226,2031
24/06/2015 23:05:20.230,2026
24/06/2015 23:05:20.234,2021
24/06/2015 23:05:20.238,2016
24/06/2015 23:05:20.242,2012
24/06/2015 23:05:20.246,2008
24/06/2015 23:05:20.250,2005
24/06/2015 23:05:20.254,2001
24/06/2015 23:05:20.258,1998
24/06/2015 23:05:20.262,1995
24/06/2015 23:05:20.266,1993
24/06/2015 23:05:20.270,1991
24/06/2015 23:05:20.274,1990
24/06/2015 23:05:20.278,1989
24/06/2015 23:05:20.282,1989
24/06/2015 23:05:20.286,1989
24/06/2015 23:05:20.290,1989
24/06/2015 23:05:20.294,1988
24/06/2015 23:05:20.298,1987
24/06/2015 23:05:20.302,1986
24/06/2015 23:05:20.306,1986
24/06/2015 23:05:20.310,1986
24/06/2015 23:05:20.314,1986
24/06/2015 23:05:20.318,1987
24/06/2015 23:05:20.322,1988
24/06/2015 23:05:20.326,1989
24/06/2015 23:05:20.330,1990
24/06/2015 23:05:20.334,1990
24/06/2015 23:05:20.338,1990
24/06/2015 23:05:20.342,1990
24/06/2015 23:05:20.346,1990
24/06/2015 23:05:20.350,1990
24/06/2015 23:05:20.354,1991
24/06/2015 23:05:20.358,1991
24/06/2015 23:05:20.362,1992
24/06/2015 23:05:20.366,1992
24/06/2015 23:05:20.370,1993
24/06/2015 23:05:20.374,1993
24/06/2015 23:05:20.378,1993
24/06/2015 23:05:20.382,1992
24/06/2015 23:05:20.386,1991
24/06/2015 23:05:20.390,1990
24/06/2015 23:05:20.394,1989
24/06/2015 23:05:20.398,1989
24/06/2015 23:05:20.402,1989
24/06/2015 23:05:20.406,1990
24/06/2015 23:05:20.410,1990
24/06/2015 23:05:20.414,1991
24/06/2015 23:05:20.418,1991
24/06/2015 23:05:20.422,1990
24/06/2015 23:05:20.426,1989
24/06/2015 23:05:20.430,1989
24/06/2015 23:05:20.434,1988
24/06/2015 23:05:20.438,1988
24/06/2015 23:05:20.442,1988
24/06/2015 23:05:20.446,1989
24/06/2015 23:05:20.450,1988
24/06/2015 23:05:20.454,1988
24/06/2015 23:05:20.458,1988
24/06/2015 23:05:20.462,1988
24/06/2015 23:05:20.466,1987
24/06/2015 23:05:20.470,1987
24/06/2015 23:05:20.474,1986
24/06/2015 23:05:20.478,1986
24/06/2015 23:05:20.482,1987
24/06/2015 23:05:20.486,1988
24/06/2015 23:05:20.490,1989
24/06/2015 23:05:20.494,1989
24/06/2015 23:05:20.498,1989
24/06/2015 23:05:20.502,1989
24/06/2015 23:05:20.506,1988
24/06/2015 23:05:20.510,1987
24/06/2015 23:05:20.514,1987
24/06/2015 23:05:20.518,1988
24/06/2015 23:05:20.522,1988
24/06/2015 23:05:20.526,1989
24/06/2015 23:05:20.530,1989
24/06/2015 23:05:20.534,1989
24/06/2015 23:05:20.538,1989
24/06/2015 23:05:20.542,1989
24/06/2015 23:05:20.546,1989
24/06/2015 23:05:20.550,1989
24/06/2015 23:05:20.554,1990
24/06/2015 23:05:20.558,1990
24/06/2015 23:05:20.562,1990
24/06/2015 23:05:20.566,1990
24/06/2015 23:05:20.570,1989
24/06/2015 23:05:20.574,1989
24/06/2015 23:05:20.578,1989
24/06/2015 23:05:20.582,1989
24/06/2015 23:05:20.586,1988
24/06/2015 23:05:20.590,1988
24/06/2015 23:05:20.594,1988
24/06/2015 23:05:20.598,1988
24/06/2015 23:05:20.602,1988
24/06/2015 23:05:20.606,1989
24/06/2015 23:05:20.610,1990
24/06/2015 23:05:20.614,1992
24/06/2015 23:05:20.618,1994
24/06/2015 23:05:20.622,1996
24/06/2015 23:05:20.626,1997
24/06/2015 23:05:20.630,1998
24/06/2015 23:05:20.634,1999
24/06/2015 23:05:20.638,2000
24/06/2015 23:05:20.642,2001
24/06/2015 23:05:20.646,2001
24/06/2015 23:05:20.650,2001
24/06/2015 23:05:20.654,2000
24/06/2015 23:05:20.658,1998
24/06/2015 23:05:20.662,1997
24/06/2015 23:05:20.666,1995
24/06/2015 23:05:20.670,1994
24/06/2015 23:05:20.674,1994
24/06/2015 23:05:20.678,1994
24/06/2015 23:05:20.682,1994
24/06/2015 23:05:20.686,1994
24/06/2015 23:05:20.690,1994
24/06/2015 23:05:20.694,1993
24/06/2015 23:05:20.698,1993
24/06/2015 23:05:20.702,1994
24/06/2015 23:05:20.706,1994
24/06/2015 23:05:20.710,1995
24/06/2015 23:05:20.714,1996
24/06/2015 23:05:20.718,1996
24/06/2015 23:05:20.722,1994
24/06/2015 23:05:20.726,1987
24/06/2015 23:05:20.730,1977
24/06/2015 23:05:20.734,1970
24/06/2015 23:05:20.738,1974
24/06/2015 23:05:20.742,2005
24/06/2015 23:05:20.746,2073
24/06/2015 23:05:20.750,2181
24/06/2015 23:05:20.754,2305
24/06/2015 23:05:20.758,2404
24/06/2015 23:05:20.762,2431
24/06/2015 23:05:20.766,2365
24/06/2015 23:05:20.770,2223
24/06/2015 23:05:20.774,2057
24/06/2015 23:05:20.778,1926
24/06/2015 23:05:20.782,1866
24/06/2015 23:05:20.786,1874
24/06/2015 23:05:20.790,1920
24/06/2015 23:05:20.794,1968
24/06/2015 23:05:20.798,1996
24/06/2015 23:05:20.802,2002
24/06/2015 23:05:20.806,1997
24/06/2015 23:05:20.810,1991
24/06/2015 23:05:20.814,1987
24/06/2015 23:05:20.818,1985
24/06/2015 23:05:20.822,1984
24/06/2015 23:05:20.826,1984
24/06/2015 23:05:20.830,1984
24/06/2015 23:05:20.834,1985
24/06/2015 23:05:20.838,1985
24/06/2015 23:05:20.842,1986
24/06/2015 23:05:20.846,1986
24/06/2015 23:05:20.850,1986
24/06/2015 23:05:20.854,1987
24/06/2015 23:05:20.858,1987
24/06/2015 23:05:20.862,1987
24/06/2015 23:05:20.866,1987
24/06/2015 23:05:20.870,1988
24/06/2015 23:05:20.874,1989
24/06/2015 23:05:20.878,1991
24/06/2015 23:05:20.882,1992
24/06/2015 23:05:20.886,1993
24/06/2015 23:05:20.890,1993
24/06/2015 23:05:20.894,1994
24/06/2015 23:05:20.898,1994
24/06/2015 23:05:20.902,1995
24/06/2015 23:05:20.906,1996
24/06/2015 23:05:20.910,1997
24/06/2015 23:05:20.914,1999
24/06/2015 23:05:20.918,2002
24/06/2015 23:05:20.922,2004
24/06/2015 23:05:20.926,2005
24/06/2015 23:05:20.930,2006
24/06/2015 23:05:20.934,2007
24/06/2015 23:05:20.938,2007
24/06/2015 23:05:20.942,2009
24/06/2015 23:05:20.946,2010
24/06/2015 23:05:20.950,2013
24/06/2015 23:05:20.954,2015
24/06/2015 23:05:20.958,2017
24/06/2015 23:05:20.962,2019
24/06/2015 23:05:20.966,2022
24/06/2015 23:05:20.970,2024
24/06/2015 23:05:20.974,2026
24/06/2015 23:05:20.978,2028
24/06/2015 23:05:20.982,2031
24/06/2015 23:05:20.986,2033
24/06/2015 23:05:20.990,2035
24/06/2015 23:05:20.994,2037
24/06/2015 23:05:20.998,2038
24/06/2015 23:05:21.002,2039
24/06/2015 23:05:21.006,2040
24/06/2015 23:05:21.010,2041
24/06/2015 23:05:21.014,2041
24/06/2015 23:05:21.018,2041
24/06/2015 23:05:21.022,2041
24/06/2015 23:05:21.026,2040
24/06/2015 23:05:21.030,2039
24/06/2015 23:05:21.034,2038
24/06/2015 23:05:21.038,2037
24/06/2015 23:05:21.042,2034
24/06/2015 23:05:21.046,2031
24/06/2015 23:05:21.050,2027
24/06/2015 23:05:21.054,2023
24/06/2015 23:05:21.058,2018
24/06/2015 23:05:21.062,2014
24/06/2015 23:05:21.066,2009
24/06/2015 23:05:21.070,2005
24/06/2015 23:05:21.074,2002
24/06/2015 23:05:21.078,1999
24/06/2015 23:05:21.082,1997
24/06/2015 23:05:21.086,1994
24/06/2015 23:05:21.090,1992
24/06/2015 23:05:21.094,1990
24/06/2015 23:05:21.098,1988
24/06/2015 23:05:21.102,1986
24/06/2015 23:05:21.106,1985
24/06/2015 23:05:21.110,1984
24/06/2015 23:05:21.114,1983
24/06/2015 23:05:21.118,1983
24/06/2015 23:05:21.122,1984
24/06/2015 23:05:21.126,1984
24/06/2015 23:05:21.130,1985
24/06/2015 23:05:21.134,1985
24/06/2015 23:05:21.138,1985
24/06/2015 23:05:21.142,1985
24/06/2015 23:05:21.146,1984
24/06/2015 23:05:21.150,1984
24/06/2015 23:05:21.154,1985
24/06/2015 23:05:21.158,1985
24/06/2015 23:05:21.162,1986
24/06/2015 23:05:21.166,1986
24/06/2015 23:05:21.170,1986
24/06/2015 23:05:21.174,1986
24/06/2015 23:05:21.178,1986
24/06/2015 23:05:21.182,1985
24/06/2015 23:05:21.186,1985
24/06/2015 23:05:21.190,1985
24/06/2015 23:05:21.194,1986
24/06/2015 23:05:21.198,1986
24/06/2015 23:05:21.202,1987
24/06/2015 23:05:21.206,1988
24/06/2015 23:05:21.210,1988
24/06/2015 23:05:21.214,1988
24/06/2015 23:05:21.218,1987
24/06/2015 23:05:21.222,1987
24/06/2015 23:05:21.226,1986
24/06/2015 23:05:21.230,1985
24/06/2015 23:05:21.234,1984
24/06/2015 23:05:21.238,1985
24/06/2015 23:05:21.242,1985
24/06/2015 23:05:21.246,1985
24/06/2015 23:05:21.250,1984
24/06/2015 23:05:21.254,1984
24/06/2015 23:05:21.258,1983
24/06/2015 23:05:21.262,1983
24/06/2015 23:05:21.266,1983
24/06/2015 23:05:21.270,1983
24/06/2015 23:05:21.274,1983
24/06/2015 23:05:21.278,1983
24/06/2015 23:05:21.282,1983
24/06/2015 23:05:21.286,1983
24/06/2015 23:05:21.290,1982
24/06/2015 23:05:21.294,1982
24/06/2015 23:05:21.298,1982
24/06/2015 23:05:21.302,1982
24/06/2015 23:05:21.306,1981
24/06/2015 23:05:21.310,1981
24/06/2015 23:05:21.314,1981
24/06/2015 23:05:21.318,1981
24/06/2015 23:05:21.322,1982
24/06/2015 23:05:21.326,1982
24/06/2015 23:05:21.330,1982
24/06/2015 23:05:21.334,1982
24/06/2015 23:05:21.338,1982
24/06/2015 23:05:21.342,1981
24/06/2015 23:05:21.346,1980
24/06/2015 23:05:21.350,1980
24/06/2015 23:05:21.354,1980
24/06/2015 23:05:21.358,1980
24/06/2015 23:05:21.362,1980
24/06/2015 23:05:21.366,1980
24/06/2015 23:05:21.370,1980
24/06/2015 23:05:21.374,1980
24/06/2015 23:05:21.378,1979
24/06/2015 23:05:21.382,1978
24/06/2015 23:05:21.386,1978
24/06/2015 23:05:21.390,1977
24/06/2015 23:05:21.394,1977
24/06/2015 23:05:21.398,1978
24/06/2015 23:05:21.402,1979
24/06/2015 23:05:21.406,1979
24/06/2015 23:05:21.410,1980
24/06/2015 23:05:21.414,1980
24/06/2015 23:05:21.418,1980
24/06/2015 23:05:21.422,1980
24/06/2015 23:05:21.426,1979
24/06/2015 23:05:21.430,1979
24/06/2015 23:05:21.434,1978
24/06/2015 23:05:21.438,1978
24/06/2015 23:05:21.442,1977
24/06/2015 23:05:21.446,1977
24/06/2015 23:05:21.450,1978
24/06/2015 23:05:21.454,1978
24/06/2015 23:05:21.458,1979
24/06/2015 23:05:21.462,1979
24/06/2015 23:05:21.466,1981
24/06/2015 23:05:21.470,1982
24/06/2015 23:05:21.474,1983
24/06/2015 23:05:21.478,1985
24/06/2015 23:05:21.482,1986
24/06/2015 23:05:21.486,1987
24/06/2015 23:05:21.490,1987
24/06/2015 23:05:21.494,1986
24/06/2015 23:05:21.498,1986
24/06/2015 23:05:21.502,1985
24/06/2015 23:05:21.506,1984
24/06/2015 23:05:21.510,1983
24/06/2015 23:05:21.514,1982
24/06/2015 23:05:21.518,1981
24/06/2015 23:05:21.522,1980
24/06/2015 23:05:21.526,1978
24/06/2015 23:05:21.530,1978
24/06/2015 23:05:21.534,1977
24/06/2015 23:05:21.538,1978
24/06/2015 23:05:21.542,1978
24/06/2015 23:05:21.546,1978
24/06/2015 23:05:21.550,1978
24/06/2015 23:05:21.554,1978
24/06/2015 23:05:21.558,1979
24/06/2015 23:05:21.562,1981
24/06/2015 23:05:21.566,1982
24/06/2015 23:05:21.570,1979
24/06/2015 23:05:21.574,1972
24/06/2015 23:05:21.578,1961
24/06/2015 23:05:21.582,1952
24/06/2015 23:05:21.586,1956
24/06/2015 23:05:21.590,1989
24/06/2015 23:05:21.594,2061
24/06/2015 23:05:21.598,2173
24/06/2015 23:05:21.602,2299
24/06/2015 23:05:21.606,2394
24/06/2015 23:05:21.610,2413
24/06/2015 23:05:21.614,2340
24/06/2015 23:05:21.618,2196
24/06/2015 23:05:21.622,2035
24/06/2015 23:05:21.626,1913
24/06/2015 23:05:21.630,1861
24/06/2015 23:05:21.634,1873
24/06/2015 23:05:21.638,1916
24/06/2015 23:05:21.642,1958
24/06/2015 23:05:21.646,1980
24/06/2015 23:05:21.650,1983
24/06/2015 23:05:21.654,1978
24/06/2015 23:05:21.658,1972
24/06/2015 23:05:21.662,1968
24/06/2015 23:05:21.666,1966
24/06/2015 23:05:21.670,1966
24/06/2015 23:05:21.674,1968
24/06/2015 23:05:21.678,1970
24/06/2015 23:05:21.682,1973
24/06/2015 23:05:21.686,1974
24/06/2015 23:05:21.690,1974
24/06/2015 23:05:21.694,1973
24/06/2015 23:05:21.698,1972
24/06/2015 23:05:21.702,1971
24/06/2015 23:05:21.706,1971
24/06/2015 23:05:21.710,1972
24/06/2015 23:05:21.714,1973
24/06/2015 23:05:21.718,1975
24/06/2015 23:05:21.722,1977
24/06/2015 23:05:21.726,1979
24/06/2015 23:05:21.730,1980
24/06/2015 23:05:21.734,1980
24/06/2015 23:05:21.738,1980
24/06/2015 23:05:21.742,1980
24/06/2015 23:05:21.746,1981
24/06/2015 23:05:21.750,1982
24/06/2015 23:05:21.754,1983
24/06/2015 23:05:21.758,1984
24/06/2015 23:05:21.762,1985
24/06/2015 23:05:21.766,1986
24/06/2015 23:05:21.770,1988
24/06/2015 23:05:21.774,1989
24/06/2015 23:05:21.778,1990
24/06/2015 23:05:21.782,1992
24/06/2015 23:05:21.786,1994
24/06/2015 23:05:21.790,1996
24/06/2015 23:05:21.794,1998
24/06/2015 23:05:21.798,2000
24/06/2015 23:05:21.802,2002
24/06/2015 23:05:21.806,2003
24/06/2015 23:05:21.810,2005
24/06/2015 23:05:21.814,2006
24/06/2015 23:05:21.818,2008
24/06/2015 23:05:21.822,2009
24/06/2015 23:05:21.826,2010
24/06/2015 23:05:21.830,2013
24/06/2015 23:05:21.834,2015
24/06/2015 23:05:21.838,2019
24/06/2015 23:05:21.842,2022
24/06/2015 23:05:21.846,2024
24/06/2015 23:05:21.850,2026
24/06/2015 23:05:21.854,2027
24/06/2015 23:05:21.858,2026
24/06/2015 23:05:21.862,2025
24/06/2015 23:05:21.866,2024
24/06/2015 23:05:21.870,2023
24/06/2015 23:05:21.874,2023
24/06/2015 23:05:21.878,2023
24/06/2015 23:05:21.882,2023
24/06/2015 23:05:21.886,2022
24/06/2015 23:05:21.890,2020
24/06/2015 23:05:21.894,2018
24/06/2015 23:05:21.898,2015
24/06/2015 23:05:21.902,2012
24/06/2015 23:05:21.906,2009
24/06/2015 23:05:21.910,2006
24/06/2015 23:05:21.914,2003
24/06/2015 23:05:21.918,2000
24/06/2015 23:05:21.922,1997
24/06/2015 23:05:21.926,1993
24/06/2015 23:05:21.930,1989
24/06/2015 23:05:21.934,1985
24/06/2015 23:05:21.938,1983
24/06/2015 23:05:21.942,1981
24/06/2015 23:05:21.946,1980
24/06/2015 23:05:21.950,1979
24/06/2015 23:05:21.954,1979
24/06/2015 23:05:21.958,1979
24/06/2015 23:05:21.962,1979
24/06/2015 23:05:21.966,1980
24/06/2015 23:05:21.970,1981
24/06/2015 23:05:21.974,1982
24/06/2015 23:05:21.978,1982
24/06/2015 23:05:21.982,1981
24/06/2015 23:05:21.986,1980
24/06/2015 23:05:21.990,1979
24/06/2015 23:05:21.994,1977
24/06/2015 23:05:21.998,1976
24/06/2015 23:05:22.002,1976
24/06/2015 23:05:22.006,1977
24/06/2015 23:05:22.010,1978
24/06/2015 23:05:22.014,1978
24/06/2015 23:05:22.018,1978
24/06/2015 23:05:22.022,1977
24/06/2015 23:05:22.026,1977
24/06/2015 23:05:22.030,1978
24/06/2015 23:05:22.034,1980
24/06/2015 23:05:22.038,1983
24/06/2015 23:05:22.042,1984
24/06/2015 23:05:22.046,1984
24/06/2015 23:05:22.050,1983
24/06/2015 23:05:22.054,1981
24/06/2015 23:05:22.058,1979
24/06/2015 23:05:22.062,1978
24/06/2015 23:05:22.066,1978
24/06/2015 23:05:22.070,1977
24/06/2015 23:05:22.074,1978
24/06/2015 23:05:22.078,1978
24/06/2015 23:05:22.082,1979
24/06/2015 23:05:22.086,1980
24/06/2015 23:05:22.090,1980
24/06/2015 23:05:22.094,1979
24/06/2015 23:05:22.098,1978
24/06/2015 23:05:22.102,1977
24/06/2015 23:05:22.106,1976
24/06/2015 23:05:22.110,1975
24/06/2015 23:05:22.114,1975
24/06/2015 23:05:22.118,1974
24/06/2015 23:05:22.122,1974
24/06/2015 23:05:22.126,1973
24/06/2015 23:05:22.130,1973
24/06/2015 23:05:22.134,1973
24/06/2015 23:05:22.138,1973
24/06/2015 23:05:22.142,1972
24/06/2015 23:05:22.146,1973
24/06/2015 23:05:22.150,1973
24/06/2015 23:05:22.154,1974
24/06/2015 23:05:22.158,1975
24/06/2015 23:05:22.162,1975
24/06/2015 23:05:22.166,1975
24/06/2015 23:05:22.170,1975
24/06/2015 23:05:22.174,1975
24/06/2015 23:05:22.178,1976
24/06/2015 23:05:22.182,1976
24/06/2015 23:05:22.186,1976
24/06/2015 23:05:22.190,1975
24/06/2015 23:05:22.194,1975
24/06/2015 23:05:22.198,1975
24/06/2015 23:05:22.202,1976
24/06/2015 23:05:22.206,1978
24/06/2015 23:05:22.210,1979
24/06/2015 23:05:22.214,1979
24/06/2015 23:05:22.218,1978
24/06/2015 23:05:22.222,1977
24/06/2015 23:05:22.226,1977
24/06/2015 23:05:22.230,1977
24/06/2015 23:05:22.234,1978
24/06/2015 23:05:22.238,1979
24/06/2015 23:05:22.242,1979
24/06/2015 23:05:22.246,1978
24/06/2015 23:05:22.250,1977
24/06/2015 23:05:22.254,1975
24/06/2015 23:05:22.258,1974
24/06/2015 23:05:22.262,1974
24/06/2015 23:05:22.266,1973
24/06/2015 23:05:22.270,1973
24/06/2015 23:05:22.274,1973
24/06/2015 23:05:22.278,1974
24/06/2015 23:05:22.282,1975
24/06/2015 23:05:22.286,1976
24/06/2015 23:05:22.290,1977
24/06/2015 23:05:22.294,1979
24/06/2015 23:05:22.298,1980
24/06/2015 23:05:22.302,1981
24/06/2015 23:05:22.306,1982
24/06/2015 23:05:22.310,1982
24/06/2015 23:05:22.314,1982
24/06/2015 23:05:22.318,1981
24/06/2015 23:05:22.322,1980
24/06/2015 23:05:22.326,1980
24/06/2015 23:05:22.330,1980
24/06/2015 23:05:22.334,1981
24/06/2015 23:05:22.338,1980
24/06/2015 23:05:22.342,1979
24/06/2015 23:05:22.346,1977
24/06/2015 23:05:22.350,1974
24/06/2015 23:05:22.354,1973
24/06/2015 23:05:22.358,1973
24/06/2015 23:05:22.362,1973
24/06/2015 23:05:22.366,1974
24/06/2015 23:05:22.370,1973
24/06/2015 23:05:22.374,1972
24/06/2015 23:05:22.378,1970
24/06/2015 23:05:22.382,1970
24/06/2015 23:05:22.386,1973
24/06/2015 23:05:22.390,1975
24/06/2015 23:05:22.394,1975
24/06/2015 23:05:22.398,1969
24/06/2015 23:05:22.402,1958
24/06/2015 23:05:22.406,1950
24/06/2015 23:05:22.410,1955
24/06/2015 23:05:22.414,1986
24/06/2015 23:05:22.418,2053
24/06/2015 23:05:22.422,2159
24/06/2015 23:05:22.426,2281
24/06/2015 23:05:22.430,2377
24/06/2015 23:05:22.434,2402
24/06/2015 23:05:22.438,2333
24/06/2015 23:05:22.442,2189
24/06/2015 23:05:22.446,2020
24/06/2015 23:05:22.450,1887
24/06/2015 23:05:22.454,1828
24/06/2015 23:05:22.458,1840
24/06/2015 23:05:22.462,1890
24/06/2015 23:05:22.466,1941
24/06/2015 23:05:22.470,1971
24/06/2015 23:05:22.474,1978
24/06/2015 23:05:22.478,1974
24/06/2015 23:05:22.482,1970
24/06/2015 23:05:22.486,1967
24/06/2015 23:05:22.490,1965
24/06/2015 23:05:22.494,1965
24/06/2015 23:05:22.498,1966
24/06/2015 23:05:22.502,1966
24/06/2015 23:05:22.506,1966
24/06/2015 23:05:22.510,1966
24/06/2015 23:05:22.514,1966
24/06/2015 23:05:22.518,1967
24/06/2015 23:05:22.522,1969
24/06/2015 23:05:22.526,1970
24/06/2015 23:05:22.530,1972
24/06/2015 23:05:22.534,1973
24/06/2015 23:05:22.538,1974
24/06/2015 23:05:22.542,1974
24/06/2015 23:05:22.546,1974
24/06/2015 23:05:22.550,1974
24/06/2015 23:05:22.554,1974
24/06/2015 23:05:22.558,1975
24/06/2015 23:05:22.562,1978
24/06/2015 23:05:22.566,1982
24/06/2015 23:05:22.570,1985
24/06/2015 23:05:22.574,1985
24/06/2015 23:05:22.578,1985
24/06/2015 23:05:22.582,1984
24/06/2015 23:05:22.586,1984
24/06/2015 23:05:22.590,1984
24/06/2015 23:05:22.594,1985
24/06/2015 23:05:22.598,1987
24/06/2015 23:05:22.602,1989
24/06/2015 23:05:22.606,1993
24/06/2015 23:05:22.610,1998
24/06/2015 23:05:22.614,2003
24/06/2015 23:05:22.618,2005
24/06/2015 23:05:22.622,2006
24/06/2015 23:05:22.626,2006
24/06/2015 23:05:22.630,2006
24/06/2015 23:05:22.634,2007
24/06/2015 23:05:22.638,2011
24/06/2015 23:05:22.642,2015
24/06/2015 23:05:22.646,2018
24/06/2015 23:05:22.650,2022
24/06/2015 23:05:22.654,2024
24/06/2015 23:05:22.658,2027
24/06/2015 23:05:22.662,2029
24/06/2015 23:05:22.666,2032
24/06/2015 23:05:22.670,2035
24/06/2015 23:05:22.674,2038
24/06/2015 23:05:22.678,2041
24/06/2015 23:05:22.682,2042
24/06/2015 23:05:22.686,2042
24/06/2015 23:05:22.690,2041
24/06/2015 23:05:22.694,2040
24/06/2015 23:05:22.698,2039
24/06/2015 23:05:22.702,2038
24/06/2015 23:05:22.706,2038
24/06/2015 23:05:22.710,2036
24/06/2015 23:05:22.714,2034
24/06/2015 23:05:22.718,2030
24/06/2015 23:05:22.722,2025
24/06/2015 23:05:22.726,2019
24/06/2015 23:05:22.730,2012
24/06/2015 23:05:22.734,2004
24/06/2015 23:05:22.738,1998
24/06/2015 23:05:22.742,1992
24/06/2015 23:05:22.746,1987
24/06/2015 23:05:22.750,1982
24/06/2015 23:05:22.754,1979
24/06/2015 23:05:22.758,1977
24/06/2015 23:05:22.762,1976
24/06/2015 23:05:22.766,1977
24/06/2015 23:05:22.770,1977
24/06/2015 23:05:22.774,1975
24/06/2015 23:05:22.778,1971
24/06/2015 23:05:22.782,1967
24/06/2015 23:05:22.786,1964
24/06/2015 23:05:22.790,1963
24/06/2015 23:05:22.794,1964
24/06/2015 23:05:22.798,1967
24/06/2015 23:05:22.802,1968
24/06/2015 23:05:22.806,1968
24/06/2015 23:05:22.810,1967
24/06/2015 23:05:22.814,1965
24/06/2015 23:05:22.818,1965
24/06/2015 23:05:22.822,1967
24/06/2015 23:05:22.826,1969
24/06/2015 23:05:22.830,1970
24/06/2015 23:05:22.834,1970
24/06/2015 23:05:22.838,1968
24/06/2015 23:05:22.842,1966
24/06/2015 23:05:22.846,1965
24/06/2015 23:05:22.850,1966
24/06/2015 23:05:22.854,1970
24/06/2015 23:05:22.858,1973
24/06/2015 23:05:22.862,1975
24/06/2015 23:05:22.866,1975
24/06/2015 23:05:22.870,1974
24/06/2015 23:05:22.874,1973
24/06/2015 23:05:22.878,1973
24/06/2015 23:05:22.882,1973
24/06/2015 23:05:22.886,1974
24/06/2015 23:05:22.890,1974
24/06/2015 23:05:22.894,1973
24/06/2015 23:05:22.898,1973
24/06/2015 23:05:22.902,1972
24/06/2015 23:05:22.906,1971
24/06/2015 23:05:22.910,1970
24/06/2015 23:05:22.914,1968
24/06/2015 23:05:22.918,1968
24/06/2015 23:05:22.922,1968
24/06/2015 23:05:22.926,1971
24/06/2015 23:05:22.930,1974
24/06/2015 23:05:22.934,1975
24/06/2015 23:05:22.938,1976
24/06/2015 23:05:22.942,1975
24/06/2015 23:05:22.946,1974
24/06/2015 23:05:22.950,1973
24/06/2015 23:05:22.954,1973
24/06/2015 23:05:22.958,1973
24/06/2015 23:05:22.962,1973
24/06/2015 23:05:22.966,1973
24/06/2015 23:05:22.970,1974
24/06/2015 23:05:22.974,1974
24/06/2015 23:05:22.978,1973
24/06/2015 23:05:22.982,1972
24/06/2015 23:05:22.986,1972
24/06/2015 23:05:22.990,1972
24/06/2015 23:05:22.994,1973
24/06/2015 23:05:22.998,1975
24/06/2015 23:05:23.002,1977
24/06/2015 23:05:23.006,1977
24/06/2015 23:05:23.010,1977
24/06/2015 23:05:23.014,1977
24/06/2015 23:05:23.018,1976
24/06/2015 23:05:23.022,1974
24/06/2015 23:05:23.026,1973
24/06/2015 23:05:23.030,1972
24/06/2015 23:05:23.034,1972
24/06/2015 23:05:23.038,1974
24/06/2015 23:05:23.042,1976
24/06/2015 23:05:23.046,1979
24/06/2015 23:05:23.050,1979
24/06/2015 23:05:23.054,1979
24/06/2015 23:05:23.058,1977
24/06/2015 23:05:23.062,1975
24/06/2015 23:05:23.066,1975
24/06/2015 23:05:23.070,1975
24/06/2015 23:05:23.074,1976
24/06/2015 23:05:23.078,1977
24/06/2015 23:05:23.082,1976
24/06/2015 23:05:23.086,1976
24/06/2015 23:05:23.090,1976
24/06/2015 23:05:23.094,1977
24/06/2015 23:05:23.098,1978
24/06/2015 23:05:23.102,1979
24/06/2015 23:05:23.106,1979
24/06/2015 23:05:23.110,1980
24/06/2015 23:05:23.114,1981
24/06/2015 23:05:23.118,1982
24/06/2015 23:05:23.122,1984
24/06/2015 23:05:23.126,1986
24/06/2015 23:05:23.130,1986
24/06/2015 23:05:23.134,1985
24/06/2015 23:05:23.138,1984
24/06/2015 23:05:23.142,1981
24/06/2015 23:05:23.146,1979
24/06/2015 23:05:23.150,1976
24/06/2015 23:05:23.154,1974
24/06/2015 23:05:23.158,1973
24/06/2015 23:05:23.162,1973
24/06/2015 23:05:23.166,1973
24/06/2015 23:05:23.170,1973
24/06/2015 23:05:23.174,1973
24/06/2015 23:05:23.178,1973
24/06/2015 23:05:23.182,1974
24/06/2015 23:05:23.186,1974
24/06/2015 23:05:23.190,1974
24/06/2015 23:05:23.194,1975
24/06/2015 23:05:23.198,1976
24/06/2015 23:05:23.202,1976
24/06/2015 23:05:23.206,1974
24/06/2015 23:05:23.210,1967
24/06/2015 23:05:23.214,1957
24/06/2015 23:05:23.218,1949
24/06/2015 23:05:23.222,1954
24/06/2015 23:05:23.226,1981
24/06/2015 23:05:23.230,2038
24/06/2015 23:05:23.234,2127
24/06/2015 23:05:23.238,2232
24/06/2015 23:05:23.242,2318
24/06/2015 23:05:23.246,2345
24/06/2015 23:05:23.250,2290
24/06/2015 23:05:23.254,2165
24/06/2015 23:05:23.258,2016
24/06/2015 23:05:23.262,1894
24/06/2015 23:05:23.266,1837
24/06/2015 23:05:23.270,1847
24/06/2015 23:05:23.274,1894
24/06/2015 23:05:23.278,1944
24/06/2015 23:05:23.282,1974
24/06/2015 23:05:23.286,1980
24/06/2015 23:05:23.290,1975
24/06/2015 23:05:23.294,1968
24/06/2015 23:05:23.298,1964
24/06/2015 23:05:23.302,1963
24/06/2015 23:05:23.306,1964
24/06/2015 23:05:23.310,1965
24/06/2015 23:05:23.314,1966
24/06/2015 23:05:23.318,1966
24/06/2015 23:05:23.322,1967
24/06/2015 23:05:23.326,1968
24/06/2015 23:05:23.330,1969
24/06/2015 23:05:23.334,1971
24/06/2015 23:05:23.338,1972
24/06/2015 23:05:23.342,1972
24/06/2015 23:05:23.346,1972
24/06/2015 23:05:23.350,1972
24/06/2015 23:05:23.354,1973
24/06/2015 23:05:23.358,1973
24/06/2015 23:05:23.362,1973
24/06/2015 23:05:23.366,1973
24/06/2015 23:05:23.370,1973
24/06/2015 23:05:23.374,1973
24/06/2015 23:05:23.378,1974
24/06/2015 23:05:23.382,1976
24/06/2015 23:05:23.386,1979
24/06/2015 23:05:23.390,1981
24/06/2015 23:05:23.394,1983
24/06/2015 23:05:23.398,1983
24/06/2015 23:05:23.402,1983
24/06/2015 23:05:23.406,1984
24/06/2015 23:05:23.410,1986
24/06/2015 23:05:23.414,1987
24/06/2015 23:05:23.418,1988
24/06/2015 23:05:23.422,1989
24/06/2015 23:05:23.426,1990
24/06/2015 23:05:23.430,1992
24/06/2015 23:05:23.434,1995
24/06/2015 23:05:23.438,1999
24/06/2015 23:05:23.442,2001
24/06/2015 23:05:23.446,2004
24/06/2015 23:05:23.450,2006
24/06/2015 23:05:23.454,2007
24/06/2015 23:05:23.458,2008
24/06/2015 23:05:23.462,2010
24/06/2015 23:05:23.466,2012
24/06/2015 23:05:23.470,2016
24/06/2015 23:05:23.474,2021
24/06/2015 23:05:23.478,2025
24/06/2015 23:05:23.482,2028
24/06/2015 23:05:23.486,2030
24/06/2015 23:05:23.490,2031
24/06/2015 23:05:23.494,2032
24/06/2015 23:05:23.498,2032
24/06/2015 23:05:23.502,2030
24/06/2015 23:05:23.506,2029
24/06/2015 23:05:23.510,2029
24/06/2015 23:05:23.514,2029
24/06/2015 23:05:23.518,2030
24/06/2015 23:05:23.522,2029
24/06/2015 23:05:23.526,2025
24/06/2015 23:05:23.530,2019
24/06/2015 23:05:23.534,2012
24/06/2015 23:05:23.538,2007
24/06/2015 23:05:23.542,2002
24/06/2015 23:05:23.546,1998
24/06/2015 23:05:23.550,1993
24/06/2015 23:05:23.554,1988
24/06/2015 23:05:23.558,1983
24/06/2015 23:05:23.562,1979
24/06/2015 23:05:23.566,1975
24/06/2015 23:05:23.570,1973
24/06/2015 23:05:23.574,1971
24/06/2015 23:05:23.578,1968
24/06/2015 23:05:23.582,1965
24/06/2015 23:05:23.586,1962
24/06/2015 23:05:23.590,1960
24/06/2015 23:05:23.594,1961
24/06/2015 23:05:23.598,1962
24/06/2015 23:05:23.602,1963
24/06/2015 23:05:23.606,1964
24/06/2015 23:05:23.610,1963
24/06/2015 23:05:23.614,1963
24/06/2015 23:05:23.618,1962
24/06/2015 23:05:23.622,1961
24/06/2015 23:05:23.626,1961
24/06/2015 23:05:23.630,1962
24/06/2015 23:05:23.634,1963
24/06/2015 23:05:23.638,1964
24/06/2015 23:05:23.642,1965
24/06/2015 23:05:23.646,1965
24/06/2015 23:05:23.650,1966
24/06/2015 23:05:23.654,1966
24/06/2015 23:05:23.658,1966
24/06/2015 23:05:23.662,1967
24/06/2015 23:05:23.666,1967
24/06/2015 23:05:23.670,1966
24/06/2015 23:05:23.674,1966
24/06/2015 23:05:23.678,1966
24/06/2015 23:05:23.682,1968
24/06/2015 23:05:23.686,1970
24/06/2015 23:05:23.690,1971
24/06/2015 23:05:23.694,1971
24/06/2015 23:05:23.698,1969
24/06/2015 23:05:23.702,1967
24/06/2015 23:05:23.706,1966
24/06/2015 23:05:23.710,1966
24/06/2015 23:05:23.714,1967
24/06/2015 23:05:23.718,1969
24/06/2015 23:05:23.722,1970
24/06/2015 23:05:23.726,1970
24/06/2015 23:05:23.730,1968
24/06/2015 23:05:23.734,1966
24/06/2015 23:05:23.738,1965
24/06/2015 23:05:23.742,1966
24/06/2015 23:05:23.746,1967
24/06/2015 23:05:23.750,1969
24/06/2015 23:05:23.754,1969
24/06/2015 23:05:23.758,1968
24/06/2015 23:05:23.762,1968
24/06/2015 23:05:23.766,1969
24/06/2015 23:05:23.770,1969
24/06/2015 23:05:23.774,1970
24/06/2015 23:05:23.778,1969
24/06/2015 23:05:23.782,1967
24/06/2015 23:05:23.786,1966
24/06/2015 23:05:23.790,1966
24/06/2015 23:05:23.794,1967
24/06/2015 23:05:23.798,1968
24/06/2015 23:05:23.802,1969
24/06/2015 23:05:23.806,1970
24/06/2015 23:05:23.810,1970
24/06/2015 23:05:23.814,1969
24/06/2015 23:05:23.818,1969
24/06/2015 23:05:23.822,1969
24/06/2015 23:05:23.826,1969
24/06/2015 23:05:23.830,1969
24/06/2015 23:05:23.834,1969
24/06/2015 23:05:23.838,1970
24/06/2015 23:05:23.842,1970
24/06/2015 23:05:23.846,1971
24/06/2015 23:05:23.850,1971
24/06/2015 23:05:23.854,1972
24/06/2015 23:05:23.858,1972
24/06/2015 23:05:23.862,1973
24/06/2015 23:05:23.866,1973
24/06/2015 23:05:23.870,1973
24/06/2015 23:05:23.874,1972
24/06/2015 23:05:23.878,1971
24/06/2015 23:05:23.882,1970
24/06/2015 23:05:23.886,1970
24/06/2015 23:05:23.890,1972
24/06/2015 23:05:23.894,1974
24/06/2015 23:05:23.898,1976
24/06/2015 23:05:23.902,1978
24/06/2015 23:05:23.906,1978
24/06/2015 23:05:23.910,1977
24/06/2015 23:05:23.914,1975
24/06/2015 23:05:23.918,1973
24/06/2015 23:05:23.922,1971
24/06/2015 23:05:23.926,1970
24/06/2015 23:05:23.930,1970
24/06/2015 23:05:23.934,1971
24/06/2015 23:05:23.938,1973
24/06/2015 23:05:23.942,1976
24/06/2015 23:05:23.946,1978
24/06/2015 23:05:23.950,1981
24/06/2015 23:05:23.954,1983
24/06/2015 23:05:23.958,1984
24/06/2015 23:05:23.962,1983
24/06/2015 23:05:23.966,1983
24/06/2015 23:05:23.970,1983
24/06/2015 23:05:23.974,1985
24/06/2015 23:05:23.978,1987
24/06/2015 23:05:23.982,1989
24/06/2015 23:05:23.986,1989
24/06/2015 23:05:23.990,1987
24/06/2015 23:05:23.994,1986
24/06/2015 23:05:23.998,1986
24/06/2015 23:05:24.002,1986
24/06/2015 23:05:24.006,1986
24/06/2015 23:05:24.010,1985
24/06/2015 23:05:24.014,1984
24/06/2015 23:05:24.018,1983
24/06/2015 23:05:24.022,1983
24/06/2015 23:05:24.026,1984
24/06/2015 23:05:24.030,1985
24/06/2015 23:05:24.034,1987
24/06/2015 23:05:24.038,1988
24/06/2015 23:05:24.042,1987
24/06/2015 23:05:24.046,1984
24/06/2015 23:05:24.050,1982
24/06/2015 23:05:24.054,1980
24/06/2015 23:05:24.058,1979
24/06/2015 23:05:24.062,1976
24/06/2015 23:05:24.066,1972
24/06/2015 23:05:24.070,1965
24/06/2015 23:05:24.074,1964
24/06/2015 23:05:24.078,1975
24/06/2015 23:05:24.082,2010
24/06/2015 23:05:24.086,2075
24/06/2015 23:05:24.090,2172
24/06/2015 23:05:24.094,2278
24/06/2015 23:05:24.098,2354
24/06/2015 23:05:24.102,2362
24/06/2015 23:05:24.106,2285
24/06/2015 23:05:24.110,2145
24/06/2015 23:05:24.114,1993
24/06/2015 23:05:24.118,1883
24/06/2015 23:05:24.122,1845
24/06/2015 23:05:24.126,1870
24/06/2015 23:05:24.130,1924
24/06/2015 23:05:24.134,1971
24/06/2015 23:05:24.138,1992
24/06/2015 23:05:24.142,1991
24/06/2015 23:05:24.146,1983
24/06/2015 23:05:24.150,1977
24/06/2015 23:05:24.154,1975
24/06/2015 23:05:24.158,1976
24/06/2015 23:05:24.162,1979
24/06/2015 23:05:24.166,1981
24/06/2015 23:05:24.170,1982
24/06/2015 23:05:24.174,1983
24/06/2015 23:05:24.178,1983
24/06/2015 23:05:24.182,1982
24/06/2015 23:05:24.186,1980
24/06/2015 23:05:24.190,1979
24/06/2015 23:05:24.194,1978
24/06/2015 23:05:24.198,1978
24/06/2015 23:05:24.202,1980
24/06/2015 23:05:24.206,1982
24/06/2015 23:05:24.210,1985
24/06/2015 23:05:24.214,1988
24/06/2015 23:05:24.218,1990
24/06/2015 23:05:24.222,1992
24/06/2015 23:05:24.226,1993
24/06/2015 23:05:24.230,1995
24/06/2015 23:05:24.234,1995
24/06/2015 23:05:24.238,1994
24/06/2015 23:05:24.242,1992
24/06/2015 23:05:24.246,1991
24/06/2015 23:05:24.250,1991
24/06/2015 23:05:24.254,1993
24/06/2015 23:05:24.258,1996
24/06/2015 23:05:24.262,1999
24/06/2015 23:05:24.266,2001
24/06/2015 23:05:24.270,2002
24/06/2015 23:05:24.274,2003
24/06/2015 23:05:24.278,2005
24/06/2015 23:05:24.282,2007
24/06/2015 23:05:24.286,2010
24/06/2015 23:05:24.290,2013
24/06/2015 23:05:24.294,2016
24/06/2015 23:05:24.298,2018
24/06/2015 23:05:24.302,2020
24/06/2015 23:05:24.306,2022
24/06/2015 23:05:24.310,2024
24/06/2015 23:05:24.314,2026
24/06/2015 23:05:24.318,2028
24/06/2015 23:05:24.322,2030
24/06/2015 23:05:24.326,2033
24/06/2015 23:05:24.330,2036
24/06/2015 23:05:24.334,2038
24/06/2015 23:05:24.338,2039
24/06/2015 23:05:24.342,2040
24/06/2015 23:05:24.346,2042
24/06/2015 23:05:24.350,2045
24/06/2015 23:05:24.354,2047
24/06/2015 23:05:24.358,2048
24/06/2015 23:05:24.362,2047
24/06/2015 23:05:24.366,2045
24/06/2015 23:05:24.370,2042
24/06/2015 23:05:24.374,2039
24/06/2015 23:05:24.378,2038
24/06/2015 23:05:24.382,2036
24/06/2015 23:05:24.386,2034
24/06/2015 23:05:24.390,2031
24/06/2015 23:05:24.394,2025
24/06/2015 23:05:24.398,2019
24/06/2015 23:05:24.402,2011
24/06/2015 23:05:24.406,2004
24/06/2015 23:05:24.410,1998
24/06/2015 23:05:24.414,1993
24/06/2015 23:05:24.418,1991
24/06/2015 23:05:24.422,1989
24/06/2015 23:05:24.426,1987
24/06/2015 23:05:24.430,1984
24/06/2015 23:05:24.434,1981
24/06/2015 23:05:24.438,1979
24/06/2015 23:05:24.442,1978
24/06/2015 23:05:24.446,1979
24/06/2015 23:05:24.450,1979
24/06/2015 23:05:24.454,1978
24/06/2015 23:05:24.458,1975
24/06/2015 23:05:24.462,1972
24/06/2015 23:05:24.466,1970
24/06/2015 23:05:24.470,1971
24/06/2015 23:05:24.474,1975
24/06/2015 23:05:24.478,1979
24/06/2015 23:05:24.482,1981
24/06/2015 23:05:24.486,1981
24/06/2015 23:05:24.490,1980
24/06/2015 23:05:24.494,1977
24/06/2015 23:05:24.498,1975
24/06/2015 23:05:24.502,1975
24/06/2015 23:05:24.506,1975
24/06/2015 23:05:24.510,1977
24/06/2015 23:05:24.514,1980
24/06/2015 23:05:24.518,1982
24/06/2015 23:05:24.522,1983
24/06/2015 23:05:24.526,1983
24/06/2015 23:05:24.530,1982
24/06/2015 23:05:24.534,1980
24/06/2015 23:05:24.538,1978
24/06/2015 23:05:24.542,1978
24/06/2015 23:05:24.546,1978
24/06/2015 23:05:24.550,1980
24/06/2015 23:05:24.554,1981
24/06/2015 23:05:24.558,1982
24/06/2015 23:05:24.562,1981
24/06/2015 23:05:24.566,1980
24/06/2015 23:05:24.570,1980
24/06/2015 23:05:24.574,1980
24/06/2015 23:05:24.578,1982
24/06/2015 23:05:24.582,1983
24/06/2015 23:05:24.586,1983
24/06/2015 23:05:24.590,1981
24/06/2015 23:05:24.594,1979
24/06/2015 23:05:24.598,1977
24/06/2015 23:05:24.602,1977
24/06/2015 23:05:24.606,1978
24/06/2015 23:05:24.610,1980
24/06/2015 23:05:24.614,1981
24/06/2015 23:05:24.618,1981
24/06/2015 23:05:24.622,1979
24/06/2015 23:05:24.626,1977
24/06/2015 23:05:24.630,1975
24/06/2015 23:05:24.634,1975
24/06/2015 23:05:24.638,1977
24/06/2015 23:05:24.642,1980
24/06/2015 23:05:24.646,1982
24/06/2015 23:05:24.650,1983
24/06/2015 23:05:24.654,1982
24/06/2015 23:05:24.658,1981
24/06/2015 23:05:24.662,1979
24/06/2015 23:05:24.666,1977
24/06/2015 23:05:24.670,1975
24/06/2015 23:05:24.674,1975
24/06/2015 23:05:24.678,1977
24/06/2015 23:05:24.682,1979
24/06/2015 23:05:24.686,1982
24/06/2015 23:05:24.690,1984
24/06/2015 23:05:24.694,1983
24/06/2015 23:05:24.698,1981
24/06/2015 23:05:24.702,1979
24/06/2015 23:05:24.706,1977
24/06/2015 23:05:24.710,1977
24/06/2015 23:05:24.714,1979
24/06/2015 23:05:24.718,1981
24/06/2015 23:05:24.722,1982
24/06/2015 23:05:24.726,1982
24/06/2015 23:05:24.730,1981
24/06/2015 23:05:24.734,1980
24/06/2015 23:05:24.738,1979
24/06/2015 23:05:24.742,1979
24/06/2015 23:05:24.746,1980
24/06/2015 23:05:24.750,1981
24/06/2015 23:05:24.754,1981
24/06/2015 23:05:24.758,1981
24/06/2015 23:05:24.762,1981
24/06/2015 23:05:24.766,1980
24/06/2015 23:05:24.770,1980
24/06/2015 23:05:24.774,1979
24/06/2015 23:05:24.778,1980
24/06/2015 23:05:24.782,1981
24/06/2015 23:05:24.786,1984
24/06/2015 23:05:24.790,1987
24/06/2015 23:05:24.794,1989
24/06/2015 23:05:24.798,1991
24/06/2015 23:05:24.802,1993
24/06/2015 23:05:24.806,1994
24/06/2015 23:05:24.810,1994
24/06/2015 23:05:24.814,1994
24/06/2015 23:05:24.818,1993
24/06/2015 23:05:24.822,1991
24/06/2015 23:05:24.826,1989
24/06/2015 23:05:24.830,1986
24/06/2015 23:05:24.834,1983
24/06/2015 23:05:24.838,1981
24/06/2015 23:05:24.842,1980
24/06/2015 23:05:24.846,1980
24/06/2015 23:05:24.850,1981
24/06/2015 23:05:24.854,1983
24/06/2015 23:05:24.858,1985
24/06/2015 23:05:24.862,1986
24/06/2015 23:05:24.866,1985
24/06/2015 23:05:24.870,1983
24/06/2015 23:05:24.874,1982
24/06/2015 23:05:24.878,1984
24/06/2015 23:05:24.882,1986
24/06/2015 23:05:24.886,1986
24/06/2015 23:05:24.890,1981
24/06/2015 23:05:24.894,1973
24/06/2015 23:05:24.898,1965
24/06/2015 23:05:24.902,1965
24/06/2015 23:05:24.906,1986
24/06/2015 23:05:24.910,2036
24/06/2015 23:05:24.914,2120
24/06/2015 23:05:24.918,2229
24/06/2015 23:05:24.922,2328
24/06/2015 23:05:24.926,2377
24/06/2015 23:05:24.930,2342
24/06/2015 23:05:24.934,2227
24/06/2015 23:05:24.938,2071
24/06/2015 23:05:24.942,1932
24/06/2015 23:05:24.946,1857
24/06/2015 23:05:24.950,1854
24/06/2015 23:05:24.954,1899
24/06/2015 23:05:24.958,1954
24/06/2015 23:05:24.962,1988
24/06/2015 23:05:24.966,1997
24/06/2015 23:05:24.970,1990
24/06/2015 23:05:24.974,1980
24/06/2015 23:05:24.978,1975
24/06/2015 23:05:24.982,1974
24/06/2015 23:05:24.986,1976
24/06/2015 23:05:24.990,1978
24/06/2015 23:05:24.994,1980
24/06/2015 23:05:24.998,1980
